File:              	C:\Qtrac\Data\Daniel M Sørensen\MScan multicentre study\Data from centres\Edmonton\MSCC00309A.QZD
Name:              	CA.EDM.NC.6.2
Protocol:          	MSCAN-R2
Date:              	9/3/20
Start time:        	12:47:36
Age:               	66
Sex:               	M
Temperature:       	32.7
S/R sites:         	Median Wr-APB
NC/disease:        	NC
Operator:          	KJ
Comments:
M-SCAN DATA (6.8-2.6m)
Scanpts: 36, 39, 450, 455
Stim. (mA)     	Amp. (mV)
MS.1           	28.5           	9.894
MS.2           	28.5           	9.894
MS.3           	28.5           	9.914
MS.4           	28.5           	9.877
MS.5           	28.5           	9.892
MS.6           	28.5           	9.906
MS.7           	28.5           	9.916
MS.8           	28.5           	9.91
MS.9           	28.5           	9.898
MS.10          	28.5           	9.94
MS.11          	28.5           	9.906
MS.12          	28.5           	9.916
MS.13          	28.5           	9.944
MS.14          	28.5           	9.91
MS.15          	28.5           	9.902
MS.16          	28.5           	9.881
MS.17          	28.5           	9.916
MS.18          	28.5           	9.93
MS.19          	28.5           	9.948
MS.20          	28.5           	9.942
MS.21          	28.5           	9.932
MS.22          	28.5           	9.954
MS.23          	28.5           	9.94
MS.24          	28.385         	9.922
MS.25          	28.33          	9.926
MS.26          	28.272         	9.926
MS.27          	28.217         	9.96
MS.28          	28.16          	9.938
MS.29          	28.102         	9.94
MS.30          	28.047         	9.954
MS.31          	27.993         	9.922
MS.32          	27.935         	9.932
MS.33          	27.88          	9.944
MS.34          	27.825         	9.936
MS.35          	27.767         	9.94
MS.36          	27.712         	9.944
MS.37          	27.657         	9.956
MS.38          	27.602         	9.958
MS.39          	27.547         	9.952
MS.40          	27.493         	9.948
MS.41          	27.438         	9.974
MS.42          	27.382         	9.948
MS.43          	27.327         	9.946
MS.44          	27.272         	9.952
MS.45          	27.217         	9.96
MS.46          	27.165         	9.958
MS.47          	27.11          	9.98
MS.48          	27.055         	9.95
MS.49          	27.002         	9.98
MS.50          	26.948         	9.771
MS.51          	26.895         	9.952
MS.52          	26.84          	9.962
MS.53          	26.787         	9.966
MS.54          	26.733         	9.736
MS.55          	26.68          	9.926
MS.56          	26.627         	9.769
MS.57          	26.573         	9.753
MS.58          	26.52          	9.763
MS.59          	26.467         	9.742
MS.60          	26.415         	9.926
MS.61          	26.362         	9.728
MS.62          	26.307         	9.722
MS.63          	26.255         	9.714
MS.64          	26.202         	9.726
MS.65          	26.153         	9.757
MS.66          	26.1           	9.722
MS.67          	26.047         	9.751
MS.68          	25.995         	9.742
MS.69          	25.942         	9.716
MS.70          	25.89          	9.72
MS.71          	25.84          	9.716
MS.72          	25.787         	9.728
MS.73          	25.735         	9.722
MS.74          	25.685         	9.7
MS.75          	25.632         	9.662
MS.76          	25.582         	9.716
MS.77          	25.53          	9.716
MS.78          	25.48          	9.722
MS.79          	25.43          	9.718
MS.80          	25.377         	9.736
MS.81          	25.327         	9.694
MS.82          	25.278         	9.708
MS.83          	25.227         	9.718
MS.84          	25.175         	9.7
MS.85          	25.125         	9.688
MS.86          	25.075         	9.684
MS.87          	25.025         	9.68
MS.88          	24.975         	9.269
MS.89          	24.925         	9.444
MS.90          	24.875         	9.251
MS.91          	24.825         	9.263
MS.92          	24.778         	9.263
MS.93          	24.727         	9.263
MS.94          	24.677         	9.7
MS.95          	24.627         	9.261
MS.96          	24.58          	9.013
MS.97          	24.53          	9.013
MS.98          	24.48          	9.007
MS.99          	24.432         	9.003
MS.100         	24.382         	8.991
MS.101         	24.335         	9.001
MS.102         	24.285         	8.997
MS.103         	24.237         	9.009
MS.104         	24.19          	8.985
MS.105         	24.14          	8.88
MS.106         	24.092         	8.852
MS.107         	24.045         	8.995
MS.108         	23.997         	8.967
MS.109         	23.948         	8.905
MS.110         	23.9           	8.697
MS.111         	23.852         	8.999
MS.112         	23.805         	8.673
MS.113         	23.757         	8.727
MS.114         	23.71          	8.657
MS.115         	23.663         	8.895
MS.116         	23.615         	8.604
MS.117         	23.567         	8.907
MS.118         	23.52          	8.83
MS.119         	23.475         	8.562
MS.120         	23.427         	8.552
MS.121         	23.38          	8.556
MS.122         	23.332         	8.453
MS.123         	23.288         	8.464
MS.124         	23.24          	8.451
MS.125         	23.195         	8.512
MS.126         	23.147         	8.691
MS.127         	23.102         	8.395
MS.128         	23.055         	8.25
MS.129         	23.01          	8.298
MS.130         	22.962         	8.282
MS.131         	22.917         	8.057
MS.132         	22.872         	8.079
MS.133         	22.825         	8.21
MS.134         	22.78          	8.377
MS.135         	22.735         	8.232
MS.136         	22.69          	8.204
MS.137         	22.645         	7.906
MS.138         	22.6           	7.867
MS.139         	22.552         	7.865
MS.140         	22.507         	7.68
MS.141         	22.462         	7.859
MS.142         	22.42          	7.688
MS.143         	22.375         	7.769
MS.144         	22.33          	7.662
MS.145         	22.285         	7.638
MS.146         	22.24          	7.65
MS.147         	22.195         	7.593
MS.148         	22.153         	7.984
MS.149         	22.108         	7.609
MS.150         	22.062         	7.541
MS.151         	22.02          	7.217
MS.152         	21.975         	7.438
MS.153         	21.93          	7.507
MS.154         	21.887         	7.364
MS.155         	21.842         	7.311
MS.156         	21.8           	7.311
MS.157         	21.755         	7.424
MS.158         	21.712         	7.462
MS.159         	21.67          	7.066
MS.160         	21.625         	7.003
MS.161         	21.583         	7.142
MS.162         	21.54          	6.804
MS.163         	21.497         	7.086
MS.164         	21.455         	7.021
MS.165         	21.41          	6.913
MS.166         	21.368         	6.48
MS.167         	21.325         	6.955
MS.168         	21.282         	6.89
MS.169         	21.24          	6.921
MS.170         	21.198         	6.667
MS.171         	21.155         	6.878
MS.172         	21.112         	7.007
MS.173         	21.07          	6.51
MS.174         	21.03          	6.848
MS.175         	20.987         	6.047
MS.176         	20.945         	6.552
MS.177         	20.903         	6.522
MS.178         	20.862         	5.984
MS.179         	20.82          	6.369
MS.180         	20.778         	6.149
MS.181         	20.737         	6.163
MS.182         	20.695         	6.236
MS.183         	20.655         	5.563
MS.184         	20.612         	6.216
MS.185         	20.573         	6.23
MS.186         	20.53          	5.223
MS.187         	20.49          	5.869
MS.188         	20.448         	6.284
MS.189         	20.407         	5.581
MS.190         	20.368         	5.245
MS.191         	20.325         	5.078
MS.192         	20.285         	4.911
MS.193         	20.245         	4.965
MS.194         	20.205         	5.519
MS.195         	20.165         	4.882
MS.196         	20.122         	5.249
MS.197         	20.083         	4.685
MS.198         	20.042         	5.003
MS.199         	20.002         	4.719
MS.200         	19.962         	4.482
MS.201         	19.922         	5.06
MS.202         	19.882         	4.768
MS.203         	19.845         	4.526
MS.204         	19.805         	4.665
MS.205         	19.765         	4.774
MS.206         	19.725         	4.52
MS.207         	19.685         	4.439
MS.208         	19.647         	4.361
MS.209         	19.608         	4.351
MS.210         	19.567         	4.246
MS.211         	19.53          	4.334
MS.212         	19.49          	4.177
MS.213         	19.45          	4.173
MS.214         	19.413         	4.149
MS.215         	19.372         	4.189
MS.216         	19.335         	4.165
MS.217         	19.295         	4.103
MS.218         	19.257         	4.129
MS.219         	19.22          	4.046
MS.220         	19.18          	3.855
MS.221         	19.142         	4.125
MS.222         	19.105         	3.619
MS.223         	19.065         	4.071
MS.224         	19.028         	4.008
MS.225         	18.99          	3.827
MS.226         	18.952         	3.825
MS.227         	18.915         	3.549
MS.228         	18.875         	3.636
MS.229         	18.837         	3.368
MS.230         	18.8           	3.261
MS.231         	18.762         	3.261
MS.232         	18.725         	3.178
MS.233         	18.688         	2.953
MS.234         	18.65          	3.406
MS.235         	18.612         	3.305
MS.236         	18.577         	3.44
MS.237         	18.54          	3.239
MS.238         	18.503         	3.186
MS.239         	18.465         	3.017
MS.240         	18.427         	2.808
MS.241         	18.392         	3.192
MS.242         	18.355         	2.784
MS.243         	18.317         	3.223
MS.244         	18.282         	2.651
MS.245         	18.245         	2.667
MS.246         	18.208         	2.6
MS.247         	18.172         	2.298
MS.248         	18.135         	2.624
MS.249         	18.1           	2.566
MS.250         	18.062         	2.506
MS.251         	18.028         	2.651
MS.252         	17.993         	2.727
MS.253         	17.955         	2.624
MS.254         	17.92          	2.167
MS.255         	17.885         	2.23
MS.256         	17.847         	2.334
MS.257         	17.812         	2.304
MS.258         	17.778         	2.441
MS.259         	17.743         	2.28
MS.260         	17.705         	2.169
MS.261         	17.67          	2.069
MS.262         	17.635         	2.069
MS.263         	17.6           	2.173
MS.264         	17.565         	1.972
MS.265         	17.53          	2.071
MS.266         	17.495         	1.646
MS.267         	17.46          	1.885
MS.268         	17.425         	2.181
MS.269         	17.39          	1.712
MS.270         	17.355         	1.69
MS.271         	17.32          	1.726
MS.272         	17.285         	1.889
MS.273         	17.253         	1.714
MS.274         	17.217         	1.682
MS.275         	17.182         	1.581
MS.276         	17.147         	1.513
MS.277         	17.115         	1.444
MS.278         	17.08          	1.672
MS.279         	17.045         	1.706
MS.280         	17.012         	1.515
MS.281         	16.977         	1.561
MS.282         	16.945         	1.356
MS.283         	16.91          	1.303
MS.284         	16.875         	1.444
MS.285         	16.842         	1.486
MS.286         	16.81          	1.635
MS.287         	16.775         	1.186
MS.288         	16.743         	1.275
MS.289         	16.708         	1.229
MS.290         	16.675         	1.243
MS.291         	16.642         	1.269
MS.292         	16.608         	1.301
MS.293         	16.575         	1.223
MS.294         	16.542         	1.158
MS.295         	16.51          	1.088
MS.296         	16.475         	1.192
MS.297         	16.442         	1.068
MS.298         	16.41          	1.096
MS.299         	16.378         	1.078
MS.300         	16.345         	1.09
MS.301         	16.312         	1.182
MS.302         	16.28          	1.118
MS.303         	16.247         	1.051
MS.304         	16.215         	0.935
MS.305         	16.182         	1.039
MS.306         	16.15          	1.039
MS.307         	16.118         	1.035
MS.308         	16.085         	0.941
MS.309         	16.052         	0.957
MS.310         	16.02          	0.904
MS.311         	15.99          	0.951
MS.312         	15.957         	0.943
MS.313         	15.925         	0.963
MS.314         	15.892         	0.888
MS.315         	15.862         	0.959
MS.316         	15.83          	0.826
MS.317         	15.797         	0.9
MS.318         	15.767         	0.79
MS.319         	15.735         	0.701
MS.320         	15.705         	0.369
MS.321         	15.672         	0.451
MS.322         	15.64          	0.393
MS.323         	15.61          	0.773
MS.324         	15.577         	0.751
MS.325         	15.547         	0.526
MS.326         	15.517         	0.449
MS.327         	15.485         	0.469
MS.328         	15.455         	0.403
MS.329         	15.422         	0.463
MS.330         	15.392         	0.51
MS.331         	15.362         	0.457
MS.332         	15.332         	0.338
MS.333         	15.3           	0.449
MS.334         	15.27          	0.419
MS.335         	15.24          	0.389
MS.336         	15.21          	0.361
MS.337         	15.18          	0.363
MS.338         	15.148         	0.306
MS.339         	15.117         	0.322
MS.340         	15.087         	0.346
MS.341         	15.057         	0.361
MS.342         	15.027         	0.298
MS.343         	14.997         	0.276
MS.344         	14.967         	0.375
MS.345         	14.938         	0.28
MS.346         	14.907         	0.244
MS.347         	14.877         	0.314
MS.348         	14.847         	0.195
MS.349         	14.82          	0.216
MS.350         	14.79          	0.189
MS.351         	14.76          	0.256
MS.352         	14.73          	0.228
MS.353         	14.7           	0.197
MS.354         	14.672         	0.298
MS.355         	14.642         	0.193
MS.356         	14.612         	0.211
MS.357         	14.582         	0.205
MS.358         	14.555         	0.167
MS.359         	14.525         	0.183
MS.360         	14.497         	0.147
MS.361         	14.467         	0.175
MS.362         	14.438         	0.211
MS.363         	14.41          	0.153
MS.364         	14.38          	0.171
MS.365         	14.352         	0.175
MS.366         	14.322         	0.153
MS.367         	14.295         	0.169
MS.368         	14.267         	0.133
MS.369         	14.237         	0.173
MS.370         	14.21          	0.165
MS.371         	14.18          	0.151
MS.372         	14.153         	0.149
MS.373         	14.125         	0.163
MS.374         	14.095         	0.177
MS.375         	14.068         	0.137
MS.376         	14.04          	0.133
MS.377         	14.012         	0.093
MS.378         	13.985         	0.171
MS.379         	13.955         	0.139
MS.380         	13.927         	0.073
MS.381         	13.9           	0.155
MS.382         	13.872         	0.161
MS.383         	13.845         	0.141
MS.384         	13.818         	0.099
MS.385         	13.79          	0.141
MS.386         	13.762         	0.087
MS.387         	13.735         	0.113
MS.388         	13.707         	0.073
MS.389         	13.68          	0.097
MS.390         	13.653         	0.137
MS.391         	13.625         	0.131
MS.392         	13.597         	0.075
MS.393         	13.57          	0.081
MS.394         	13.542         	0.066
MS.395         	13.517         	0.073
MS.396         	13.49          	0.046
MS.397         	13.462         	0.083
MS.398         	13.435         	0.075
MS.399         	13.407         	0.083
MS.400         	13.382         	0.038
MS.401         	13.355         	0.085
MS.402         	13.327         	0.068
MS.403         	13.302         	0.081
MS.404         	13.275         	0.042
MS.405         	13.247         	0.145
MS.406         	13.222         	0.089
MS.407         	13.195         	0.07
MS.408         	13.17          	0.079
MS.409         	13.142         	0.062
MS.410         	13.117         	0.044
MS.411         	13.09          	0.083
MS.412         	13.065         	0.042
MS.413         	13.037         	0.038
MS.414         	13.012         	0.038
MS.415         	12.987         	0.024
MS.416         	12.96          	0.028
MS.417         	12.935         	0.042
MS.418         	12.907         	0.044
MS.419         	12.882         	0.034
MS.420         	12.858         	0.038
MS.421         	12.832         	0.068
MS.422         	12.805         	0.012
MS.423         	12.78          	0.022
MS.424         	12.755         	0.016
MS.425         	12.73          	0.04
MS.426         	12.705         	0.04
MS.427         	12.677         	0.022
MS.428         	12.653         	0.022
MS.429         	12.627         	0.016
MS.430         	12.602         	0.022
MS.431         	12.577         	0.026
MS.432         	12.552         	0.018
MS.433         	12.528         	0.042
MS.434         	12.502         	0.02
MS.435         	12.477         	0.024
MS.436         	12.452         	0.016
MS.437         	12.427         	0.024
MS.438         	12.403         	0.016
MS.439         	12.377         	0.042
MS.440         	12.352         	0.028
MS.441         	12.327         	0.016
MS.442         	12.302         	0.024
MS.443         	12.28          	0.018
MS.444         	12.255         	0.024
MS.445         	12.23          	0.026
MS.446         	12.205         	0.018
MS.447         	12.182         	0.018
MS.448         	12.157         	0.024
MS.449         	12.132         	0.02
MS.450         	12.108         	0.03
MS.451         	12.085         	0.018
MS.452         	12.06          	0.02
MS.453         	12.035         	0.02
MS.454         	12.012         	0.016
MS.455         	11.988         	0.016
MS.456         	11.965         	0.022
MS.457         	11.94          	0.014
MS.458         	11.915         	0.014
MS.459         	11.892         	0.02
MS.460         	11.867         	0.024
MS.461         	11.845         	0.014
MS.462         	11.822         	0.03
MS.463         	11.797         	0.018
MS.464         	11.775         	0.016
MS.465         	11.75          	0.014
DERIVED EXCITABILITY VARIABLES
Program = QTracP 3/4/2020
Threshold method = 6 (optimised for CAP, using data for present condition only)
SR method = 1 (using actual data values)
6.                 	0.000               	Peak response\(mV)
9.                 	32.7                	Temperature ( C)
17.                	66                  	Age (years)
18.                	1                   	Sex (M=1, F=2)

EXTRA VARIABLES

MScPeak(mV) = 9.89
MScS5(mA) = 15.53
MScS50(mA) = 20.1
MScS95(mA) = 24.84
MScNSteps = 4
MScSteps(%) = 10.2
MScStepMax(%) = 2.9
MScD50 = 40
MScSlope = 5.31
MSFPeakAmp(mV) = 9.93
MSFNUnits = 84
MSFMeanUnitAmp(uV) = 118.2
MSFHuntTime(m) = 2.41
MSFError(%) = 6.79
MSFNLarge = 23.33
MSFMedianAmp(%) = 0.952
MSFMedianAmp(mV) = 0.0945
MSFHalfAmpAmp(%) = 1.28
MSFHalfAmpAmp(mV) = 0.127
MSFLargestAmp(%) = 6.56
MSFLargestAmp(mV) = 0.652
MSFMeanRS(%) = 1.99
MSFOpts = 10106121
MScDuration(min) = 4.2
MSFTraces = 420
MSFSizeLimit(uV) = 24.8
MSFLimitType = 1
MSFSmallestAmp(uV) = 28.3

EXTRA WAVEFORMS


!MScan Model
!84
	1	13.1	0.39	2
	2	13.6	0.32	2
	3	14.06	0.55	2
	4	14.4	0.28	2
	5	14.64	0.37	2
	6	14.8	0.36	2
	7	14.93	0.51	2
	8	15.14	0.58	2
	9	15.27	0.88	2
	10	15.29	0.54	2
	11	15.53	1.27	2
	12	15.65	0.96	2
	13	15.78	1.39	1.6
	14	16.04	0.94	2
	15	16.17	0.88	2
	16	16.31	0.44	2
	17	16.44	0.58	2
	18	16.57	0.67	2
	19	16.69	0.8	2
	20	16.81	0.91	2
	21	16.92	0.8	2
	22	17.03	0.91	2
	23	17.14	0.91	2
	24	17.27	1.08	2
	25	17.37	0.85	2
	26	17.44	0.75	2
	27	17.51	0.87	2
	28	17.6	0.8	2
	29	17.7	1.19	2
	30	17.84	1.45	2
	31	18.02	1.9	2
	32	18.14	1.18	2
	33	18.25	1.55	2
	34	18.38	1.28	2
	35	18.54	2.32	2
	36	18.67	1.48	2
	37	18.76	1.53	2
	38	18.84	1.07	2
	39	18.86	1.18	2
	40	18.91	0.49	2
	41	18.97	0.83	2
	42	19.05	1.32	2
	43	19.14	1.2	2
	44	19.37	1.24	2
	45	19.42	0.37	2
	46	19.47	0.49	2
	47	19.51	0.63	2
	48	19.56	0.55	2
	49	19.63	0.82	2
	50	19.71	0.53	2
	51	19.84	1.54	2
	52	20.04	2.17	2
	53	20.2	2.8	2
	54	20.32	2.21	2
	55	20.45	2.57	2
	56	20.73	6.56	2
	57	20.99	2.14	2
	58	21.24	2.79	2
	59	21.48	2.66	2
	60	21.64	1.14	2
	61	21.75	1.12	2
	62	21.86	1.2	2
	63	22.03	1.51	2
	64	22.19	1.08	2
	65	22.35	1.19	2
	66	22.51	1.59	2
	67	22.59	0.57	2
	68	22.67	0.55	2
	69	22.75	0.81	2
	70	22.86	1.09	2
	71	22.97	0.89	2
	72	23.12	1.15	2
	73	23.27	1.12	2
	74	23.44	1.1	2
	75	23.61	0.84	2
	76	23.92	1.64	2
	77	24.21	0.94	2
	78	24.43	1.49	2
	79	24.6	0.94	2
	80	24.73	0.94	2
	81	24.85	0.93	2
	82	25.11	3.12	2
	83	26.53	0.53	2
	84	27.13	1.86	2

