File:              	C:\Qtrac\Data\Daniel M Sørensen\MScan multicentre study\Data from centres\Edmonton\MSCC00302B.QZD
Name:              	CA.EDM.NC.6.1
Protocol:          	MSCAN-R2
Date:              	2/3/20
Start time:        	13:18:49
Age:               	66
Sex:               	M
Temperature:       	33.3
S/R sites:         	Ulnar Wr-ADM
NC/disease:        	NC
Operator:          	KJ
Comments:          	Voluntary Contractions
M-SCAN DATA (7.4-1.9m)
Scanpts: 102, 107, 556, 561
Stim. (mA)     	Amp. (mV)
MS.1           	31             	8.842
MS.2           	31             	8.82
MS.3           	31             	8.778
MS.4           	31             	8.77
MS.5           	31             	8.786
MS.6           	31             	8.784
MS.7           	31             	8.711
MS.8           	31             	8.768
MS.9           	31             	8.745
MS.10          	31             	8.774
MS.11          	31             	8.774
MS.12          	31             	8.798
MS.13          	31             	8.8
MS.14          	31             	8.788
MS.15          	31             	8.745
MS.16          	31             	8.808
MS.17          	31             	8.822
MS.18          	31             	8.83
MS.19          	31             	8.81
MS.20          	31             	8.818
MS.21          	31             	8.828
MS.22          	31             	8.838
MS.23          	31             	8.854
MS.24          	30.875         	8.844
MS.25          	30.815         	8.832
MS.26          	30.752         	8.822
MS.27          	30.692         	8.818
MS.28          	30.63          	8.834
MS.29          	30.57          	8.806
MS.30          	30.507         	8.85
MS.31          	30.448         	8.828
MS.32          	30.385         	8.808
MS.33          	30.325         	8.786
MS.34          	30.265         	8.82
MS.35          	30.205         	8.788
MS.36          	30.145         	8.784
MS.37          	30.082         	8.772
MS.38          	30.022         	8.77
MS.39          	29.962         	8.826
MS.40          	29.903         	8.772
MS.41          	29.845         	8.854
MS.42          	29.785         	8.776
MS.43          	29.725         	8.87
MS.44          	29.665         	8.8
MS.45          	29.605         	8.76
MS.46          	29.547         	8.784
MS.47          	29.487         	8.798
MS.48          	29.43          	8.774
MS.49          	29.37          	8.792
MS.50          	29.312         	8.804
MS.51          	29.252         	8.784
MS.52          	29.195         	8.814
MS.53          	29.137         	8.798
MS.54          	29.077         	8.8
MS.55          	29.02          	8.802
MS.56          	28.962         	8.796
MS.57          	28.905         	8.786
MS.58          	28.847         	8.774
MS.59          	28.787         	8.808
MS.60          	28.73          	8.788
MS.61          	28.675         	8.8
MS.62          	28.618         	8.798
MS.63          	28.56          	8.81
MS.64          	28.502         	8.818
MS.65          	28.445         	8.796
MS.66          	28.387         	8.834
MS.67          	28.332         	8.808
MS.68          	28.275         	8.814
MS.69          	28.217         	8.834
MS.70          	28.162         	8.866
MS.71          	28.105         	8.838
MS.72          	28.05          	8.858
MS.73          	27.995         	8.84
MS.74          	27.938         	8.87
MS.75          	27.882         	8.834
MS.76          	27.827         	8.842
MS.77          	27.77          	8.872
MS.78          	27.715         	8.868
MS.79          	27.66          	8.862
MS.80          	27.605         	8.824
MS.81          	27.55          	8.747
MS.82          	27.495         	8.804
MS.83          	27.44          	8.564
MS.84          	27.385         	8.834
MS.85          	27.33          	8.905
MS.86          	27.275         	8.816
MS.87          	27.22          	8.822
MS.88          	27.167         	8.758
MS.89          	27.112         	8.854
MS.90          	27.057         	8.822
MS.91          	27.005         	8.468
MS.92          	26.95          	8.882
MS.93          	26.895         	8.806
MS.94          	26.842         	8.729
MS.95          	26.79          	8.701
MS.96          	26.735         	8.739
MS.97          	26.682         	8.818
MS.98          	26.627         	8.85
MS.99          	26.575         	8.88
MS.100         	26.522         	8.796
MS.101         	26.47          	8.83
MS.102         	26.417         	8.836
MS.103         	26.362         	8.834
MS.104         	26.31          	8.802
MS.105         	26.257         	8.852
MS.106         	26.205         	8.866
MS.107         	26.153         	8.818
MS.108         	26.1           	8.844
MS.109         	26.05          	8.836
MS.110         	25.997         	8.856
MS.111         	25.945         	8.832
MS.112         	25.892         	8.967
MS.113         	25.842         	8.991
MS.114         	25.79          	8.876
MS.115         	25.737         	8.888
MS.116         	25.688         	8.826
MS.117         	25.635         	8.844
MS.118         	25.585         	8.816
MS.119         	25.532         	8.854
MS.120         	25.483         	8.802
MS.121         	25.432         	8.911
MS.122         	25.38          	8.808
MS.123         	25.33          	8.844
MS.124         	25.28          	8.864
MS.125         	25.227         	8.659
MS.126         	25.177         	8.852
MS.127         	25.127         	8.87
MS.128         	25.077         	8.739
MS.129         	25.028         	8.802
MS.130         	24.977         	8.764
MS.131         	24.927         	8.842
MS.132         	24.877         	8.834
MS.133         	24.827         	8.782
MS.134         	24.778         	8.711
MS.135         	24.73          	8.816
MS.136         	24.68          	8.804
MS.137         	24.63          	8.862
MS.138         	24.58          	8.806
MS.139         	24.532         	8.677
MS.140         	24.483         	8.766
MS.141         	24.435         	8.832
MS.142         	24.385         	8.834
MS.143         	24.337         	8.721
MS.144         	24.288         	8.731
MS.145         	24.24          	8.635
MS.146         	24.19          	8.824
MS.147         	24.142         	8.598
MS.148         	24.095         	8.844
MS.149         	24.047         	8.816
MS.150         	23.997         	8.752
MS.151         	23.95          	8.715
MS.152         	23.903         	8.717
MS.153         	23.855         	8.808
MS.154         	23.807         	8.882
MS.155         	23.76          	8.75
MS.156         	23.712         	8.683
MS.157         	23.665         	8.893
MS.158         	23.618         	8.848
MS.159         	23.57          	8.754
MS.160         	23.522         	8.836
MS.161         	23.475         	8.824
MS.162         	23.43          	8.482
MS.163         	23.382         	8.516
MS.164         	23.335         	8.617
MS.165         	23.29          	8.552
MS.166         	23.243         	8.786
MS.167         	23.195         	8.816
MS.168         	23.15          	8.705
MS.169         	23.102         	8.76
MS.170         	23.057         	8.393
MS.171         	23.01          	8.419
MS.172         	22.965         	8.552
MS.173         	22.92          	8.347
MS.174         	22.872         	8.59
MS.175         	22.827         	8.478
MS.176         	22.782         	8.645
MS.177         	22.737         	8.59
MS.178         	22.692         	8.496
MS.179         	22.645         	8.482
MS.180         	22.6           	8.292
MS.181         	22.555         	8.494
MS.182         	22.51          	8.353
MS.183         	22.465         	8.367
MS.184         	22.42          	8.488
MS.185         	22.375         	8.343
MS.186         	22.33          	8.363
MS.187         	22.288         	8.385
MS.188         	22.243         	8.369
MS.189         	22.198         	8.369
MS.190         	22.153         	8.27
MS.191         	22.11          	8.214
MS.192         	22.065         	8.347
MS.193         	22.02          	8.061
MS.194         	21.977         	8.097
MS.195         	21.932         	8.165
MS.196         	21.89          	8.101
MS.197         	21.845         	8.244
MS.198         	21.802         	8.018
MS.199         	21.757         	7.916
MS.200         	21.715         	8.248
MS.201         	21.67          	8.113
MS.202         	21.627         	8.171
MS.203         	21.585         	7.986
MS.204         	21.542         	7.867
MS.205         	21.497         	7.932
MS.206         	21.455         	7.821
MS.207         	21.413         	7.704
MS.208         	21.37          	8.012
MS.209         	21.327         	7.857
MS.210         	21.285         	8.012
MS.211         	21.243         	7.896
MS.212         	21.2           	7.249
MS.213         	21.157         	7.338
MS.214         	21.115         	7.912
MS.215         	21.073         	7.829
MS.216         	21.03          	7.305
MS.217         	20.987         	7.394
MS.218         	20.948         	7.366
MS.219         	20.905         	7.114
MS.220         	20.862         	7.587
MS.221         	20.823         	7.704
MS.222         	20.78          	7.275
MS.223         	20.737         	7.263
MS.224         	20.698         	7.054
MS.225         	20.655         	7.404
MS.226         	20.615         	6.971
MS.227         	20.573         	7.495
MS.228         	20.532         	7.086
MS.229         	20.49          	6.991
MS.230         	20.45          	6.985
MS.231         	20.41          	6.971
MS.232         	20.368         	7.05
MS.233         	20.327         	7.088
MS.234         	20.288         	6.957
MS.235         	20.247         	6.975
MS.236         	20.205         	6.768
MS.237         	20.165         	6.907
MS.238         	20.125         	6.911
MS.239         	20.085         	6.806
MS.240         	20.045         	7.182
MS.241         	20.005         	6.921
MS.242         	19.965         	6.804
MS.243         	19.925         	6.328
MS.244         	19.885         	6.842
MS.245         	19.845         	6.741
MS.246         	19.805         	6.691
MS.247         	19.767         	6.445
MS.248         	19.727         	6.399
MS.249         	19.688         	6.502
MS.250         	19.647         	6.375
MS.251         	19.61          	6.56
MS.252         	19.57          	6.377
MS.253         	19.53          	6.433
MS.254         	19.493         	6.792
MS.255         	19.452         	6.524
MS.256         	19.415         	6.335
MS.257         	19.375         	6.357
MS.258         	19.337         	6.54
MS.259         	19.297         	6.518
MS.260         	19.26          	6.359
MS.261         	19.22          	6.395
MS.262         	19.182         	6.375
MS.263         	19.145         	6.341
MS.264         	19.105         	6.381
MS.265         	19.067         	6.135
MS.266         	19.03          	6.331
MS.267         	18.993         	5.773
MS.268         	18.952         	5.72
MS.269         	18.915         	5.767
MS.270         	18.877         	5.793
MS.271         	18.84          	6.264
MS.272         	18.802         	5.535
MS.273         	18.765         	5.859
MS.274         	18.727         	5.601
MS.275         	18.69          	5.748
MS.276         	18.653         	5.567
MS.277         	18.615         	5.543
MS.278         	18.577         	5.758
MS.279         	18.54          	5.777
MS.280         	18.505         	5.521
MS.281         	18.467         	5.573
MS.282         	18.43          	5.837
MS.283         	18.392         	5.869
MS.284         	18.358         	5.67
MS.285         	18.32          	5.503
MS.286         	18.282         	5.662
MS.287         	18.247         	5.333
MS.288         	18.21          	5.15
MS.289         	18.175         	5.136
MS.290         	18.137         	4.798
MS.291         	18.102         	4.681
MS.292         	18.065         	4.933
MS.293         	18.03          	5.064
MS.294         	17.993         	4.381
MS.295         	17.958         	4.502
MS.296         	17.92          	5.154
MS.297         	17.885         	4.391
MS.298         	17.85          	4.677
MS.299         	17.815         	4.608
MS.300         	17.778         	4.256
MS.301         	17.743         	4.665
MS.302         	17.708         	4.814
MS.303         	17.672         	4.552
MS.304         	17.637         	4.947
MS.305         	17.602         	4.508
MS.306         	17.567         	4.433
MS.307         	17.53          	4.389
MS.308         	17.495         	4.206
MS.309         	17.46          	4.3
MS.310         	17.427         	4.282
MS.311         	17.392         	4.278
MS.312         	17.358         	4.23
MS.313         	17.323         	4.117
MS.314         	17.288         	4.038
MS.315         	17.253         	4.095
MS.316         	17.217         	3.98
MS.317         	17.185         	4.167
MS.318         	17.15          	4.365
MS.319         	17.115         	4.202
MS.320         	17.083         	3.847
MS.321         	17.047         	4.071
MS.322         	17.012         	3.807
MS.323         	16.98          	3.988
MS.324         	16.945         	3.515
MS.325         	16.913         	3.897
MS.326         	16.878         	3.656
MS.327         	16.845         	3.865
MS.328         	16.81          	3.825
MS.329         	16.778         	3.432
MS.330         	16.743         	3.837
MS.331         	16.71          	3.855
MS.332         	16.675         	4.127
MS.333         	16.642         	3.988
MS.334         	16.61          	3.827
MS.335         	16.577         	2.965
MS.336         	16.542         	3.317
MS.337         	16.51          	2.991
MS.338         	16.477         	3.48
MS.339         	16.445         	3.253
MS.340         	16.413         	2.852
MS.341         	16.378         	3.229
MS.342         	16.345         	2.834
MS.343         	16.312         	3.086
MS.344         	16.28          	2.645
MS.345         	16.247         	2.685
MS.346         	16.215         	2.773
MS.347         	16.182         	2.78
MS.348         	16.15          	2.798
MS.349         	16.118         	2.6
MS.350         	16.087         	3.001
MS.351         	16.055         	2.765
MS.352         	16.022         	2.914
MS.353         	15.99          	2.957
MS.354         	15.957         	2.532
MS.355         	15.927         	2.763
MS.356         	15.895         	3.033
MS.357         	15.862         	2.818
MS.358         	15.83          	2.475
MS.359         	15.8           	2.608
MS.360         	15.767         	2.592
MS.361         	15.737         	2.872
MS.362         	15.705         	2.626
MS.363         	15.672         	2.147
MS.364         	15.642         	2.405
MS.365         	15.61          	2.32
MS.366         	15.58          	2.371
MS.367         	15.55          	2.457
MS.368         	15.517         	2.248
MS.369         	15.487         	2.06
MS.370         	15.455         	2.111
MS.371         	15.425         	2.01
MS.372         	15.395         	2.065
MS.373         	15.362         	2.107
MS.374         	15.332         	2.193
MS.375         	15.302         	2.344
MS.376         	15.273         	2.058
MS.377         	15.24          	2.087
MS.378         	15.21          	1.972
MS.379         	15.18          	2.048
MS.380         	15.15          	2.046
MS.381         	15.12          	2.026
MS.382         	15.09          	1.962
MS.383         	15.06          	1.95
MS.384         	15.03          	2.018
MS.385         	15             	1.772
MS.386         	14.97          	1.638
MS.387         	14.94          	1.692
MS.388         	14.91          	1.748
MS.389         	14.88          	1.911
MS.390         	14.85          	1.857
MS.391         	14.82          	1.658
MS.392         	14.79          	1.64
MS.393         	14.76          	1.915
MS.394         	14.733         	1.627
MS.395         	14.702         	1.772
MS.396         	14.672         	1.511
MS.397         	14.642         	1.633
MS.398         	14.615         	1.664
MS.399         	14.585         	1.66
MS.400         	14.555         	1.686
MS.401         	14.527         	1.382
MS.402         	14.497         	1.464
MS.403         	14.467         	1.374
MS.404         	14.44          	1.472
MS.405         	14.41          	1.587
MS.406         	14.382         	1.474
MS.407         	14.352         	1.573
MS.408         	14.325         	1.404
MS.409         	14.295         	1.434
MS.410         	14.267         	1.303
MS.411         	14.24          	1.188
MS.412         	14.21          	1.325
MS.413         	14.182         	1.243
MS.414         	14.155         	1.311
MS.415         	14.125         	1.325
MS.416         	14.097         	1.076
MS.417         	14.07          	1.096
MS.418         	14.04          	1.09
MS.419         	14.012         	1.19
MS.420         	13.985         	1.213
MS.421         	13.957         	0.981
MS.422         	13.93          	0.961
MS.423         	13.903         	0.945
MS.424         	13.872         	0.904
MS.425         	13.845         	0.945
MS.426         	13.818         	0.961
MS.427         	13.79          	0.935
MS.428         	13.762         	0.812
MS.429         	13.735         	0.749
MS.430         	13.707         	0.757
MS.431         	13.68          	0.751
MS.432         	13.653         	0.653
MS.433         	13.625         	0.695
MS.434         	13.6           	0.733
MS.435         	13.572         	0.624
MS.436         	13.545         	0.58
MS.437         	13.517         	0.641
MS.438         	13.49          	0.586
MS.439         	13.462         	0.6
MS.440         	13.438         	0.437
MS.441         	13.41          	0.582
MS.442         	13.382         	0.365
MS.443         	13.355         	0.469
MS.444         	13.33          	0.647
MS.445         	13.302         	0.419
MS.446         	13.278         	0.624
MS.447         	13.25          	0.471
MS.448         	13.222         	0.552
MS.449         	13.197         	0.459
MS.450         	13.17          	0.29
MS.451         	13.145         	0.497
MS.452         	13.117         	0.411
MS.453         	13.092         	0.415
MS.454         	13.065         	0.427
MS.455         	13.04          	0.379
MS.456         	13.012         	0.359
MS.457         	12.987         	0.286
MS.458         	12.962         	0.197
MS.459         	12.935         	0.226
MS.460         	12.91          	0.214
MS.461         	12.885         	0.24
MS.462         	12.858         	0.201
MS.463         	12.832         	0.252
MS.464         	12.807         	0.244
MS.465         	12.782         	0.195
MS.466         	12.755         	0.111
MS.467         	12.73          	0.157
MS.468         	12.705         	0.129
MS.469         	12.68          	0.149
MS.470         	12.655         	0.161
MS.471         	12.63          	0.157
MS.472         	12.602         	0.121
MS.473         	12.577         	0.113
MS.474         	12.552         	0.123
MS.475         	12.528         	0.107
MS.476         	12.502         	0.097
MS.477         	12.477         	0.232
MS.478         	12.452         	0.107
MS.479         	12.427         	0.115
MS.480         	12.403         	0.125
MS.481         	12.38          	0.093
MS.482         	12.355         	0.137
MS.483         	12.33          	0.109
MS.484         	12.305         	0.121
MS.485         	12.28          	0.145
MS.486         	12.255         	0.089
MS.487         	12.23          	0.119
MS.488         	12.207         	0.095
MS.489         	12.182         	0.117
MS.490         	12.157         	0.101
MS.491         	12.132         	0.022
MS.492         	12.11          	0.101
MS.493         	12.085         	0.111
MS.494         	12.06          	0.079
MS.495         	12.037         	0.073
MS.496         	12.012         	0.089
MS.497         	11.99          	0.077
MS.498         	11.965         	0.083
MS.499         	11.94          	0.089
MS.500         	11.917         	0.093
MS.501         	11.892         	0.064
MS.502         	11.87          	0.062
MS.503         	11.845         	0.089
MS.504         	11.822         	0.077
MS.505         	11.797         	0.000
MS.506         	11.775         	0.058
MS.507         	11.752         	0.093
MS.508         	11.727         	0.123
MS.509         	11.705         	0.129
MS.510         	11.68          	0.107
MS.511         	11.657         	0.05
MS.512         	11.635         	0.066
MS.513         	11.613         	0.066
MS.514         	11.587         	0.062
MS.515         	11.565         	0.06
MS.516         	11.542         	0.052
MS.517         	11.52          	0.066
MS.518         	11.495         	0.068
MS.519         	11.472         	0.064
MS.520         	11.45          	0.064
MS.521         	11.427         	0.081
MS.522         	11.405         	0.016
MS.523         	11.382         	0.054
MS.524         	11.358         	0.113
MS.525         	11.335         	0.117
MS.526         	11.312         	0.046
MS.527         	11.29          	0.07
MS.528         	11.267         	0.042
MS.529         	11.245         	0.006
MS.530         	11.222         	0.044
MS.531         	11.2           	0.077
MS.532         	11.177         	0.077
MS.533         	11.155         	0.089
MS.534         	11.135         	0.101
MS.535         	11.113         	0.024
MS.536         	11.09          	0.066
MS.537         	11.068         	0.034
MS.538         	11.045         	0.097
MS.539         	11.023         	0.038
MS.540         	11             	0.157
MS.541         	10.98          	0.036
MS.542         	10.957         	0.018
MS.543         	10.935         	0.052
MS.544         	10.912         	0.066
MS.545         	10.892         	0.016
MS.546         	10.87          	0.099
MS.547         	10.847         	0.048
MS.548         	10.827         	0.06
MS.549         	10.805         	0.07
MS.550         	10.782         	0.032
MS.551         	10.762         	0.018
MS.552         	10.74          	0.036
MS.553         	10.717         	0.038
MS.554         	10.698         	0.022
MS.555         	10.675         	0.064
MS.556         	10.655         	0.03
MS.557         	10.632         	0.036
MS.558         	10.613         	0.038
MS.559         	10.59          	0.034
MS.560         	10.57          	0.028
MS.561         	10.547         	0.008
MS.562         	10.528         	-0.004
MS.563         	10.507         	0.018
MS.564         	10.485         	0.04
MS.565         	10.465         	0.046
MS.566         	10.443         	0.03
MS.567         	10.422         	0.052
MS.568         	10.403         	0.046
MS.569         	10.38          	0.038
MS.570         	10.36          	0.046
MS.571         	10.34          	0.034
MS.572         	10.32          	0.026
MS.573         	10.297         	0.056
MS.574         	10.278         	0.109
MS.575         	10.257         	0.093
MS.576         	10.238         	0.081
MS.577         	10.217         	0.032
MS.578         	10.195         	0.012
MS.579         	10.175         	0.02
MS.580         	10.155         	0.016
MS.581         	10.135         	0.038
MS.582         	10.115         	0.026
MS.583         	10.095         	0.044
MS.584         	10.075         	0.032
MS.585         	10.055         	0.026
MS.586         	10.035         	0.048
MS.587         	10.015         	0.032
MS.588         	9.995          	0.052
MS.589         	9.975          	0.026
MS.590         	9.955          	0.042
MS.591         	9.935          	0.028
MS.592         	9.915          	0.052
MS.593         	9.895          	0.062
MS.594         	9.875          	0.018
MS.595         	9.855          	0.018
MS.596         	9.835          	0.046
MS.597         	9.815          	0.01
DERIVED EXCITABILITY VARIABLES
Program = QTracP 3/4/2020
Threshold method = 6 (optimised for CAP, using data for present condition only)
SR method = 1 (using actual data values)
6.                 	0.000               	Peak response\(mV)
9.                 	33.3                	Temperature ( C)
17.                	66                  	Age (years)
18.                	1                   	Sex (M=1, F=2)

EXTRA VARIABLES

MScPeak(mV) = 8.76
MScS5(mA) = 13.3
MScS50(mA) = 17.7
MScS95(mA) = 22.3
MScNSteps = 0
MScSteps(%) = 0.0
MScStepMax(%) = 0.0
MScD50 = 52
MScSlope = 4.18
MSFPeakAmp(mV) = 8.81
MSFNUnits = 70
MSFMeanUnitAmp(uV) = 125.8
MSFHuntTime(m) = 2.58
MSFError(%) = 6.19
MSFNLarge = 17.78
MSFMedianAmp(%) = 1.24
MSFMedianAmp(mV) = 0.11
MSFHalfAmpAmp(%) = 1.85
MSFHalfAmpAmp(mV) = 0.163
MSFLargestAmp(%) = 6.93
MSFLargestAmp(mV) = 0.61
MSFMeanRS(%) = 1.98
MSFOpts = 10106121
MScDuration(min) = 5.5
MSFTraces = 460
MSFSizeLimit(uV) = 25.2
MSFLimitType = 3
MSFSmallestAmp(uV) = 25.9

EXTRA WAVEFORMS


!MScan Model
!70
	1	11.11	0.67	2
	2	12.56	0.51	2
	3	12.72	0.45	2
	4	12.81	0.34	2
	5	12.89	0.48	2
	6	12.92	0.29	2
	7	12.98	0.71	2
	8	13.15	1.27	2
	9	13.42	1.28	2
	10	13.55	0.97	2
	11	13.6	0.54	2
	12	13.63	0.38	2
	13	13.68	0.47	2
	14	13.72	0.32	2
	15	13.75	0.52	2
	16	13.81	0.55	2
	17	13.84	0.46	2
	18	13.87	0.39	2
	19	13.92	0.55	2
	20	13.97	0.68	2
	21	14.02	0.57	2
	22	14.07	0.57	2
	23	14.13	0.8	2
	24	14.22	1.1	2
	25	14.37	1.12	2
	26	14.53	1.49	2
	27	14.77	1.8	2
	28	14.93	1.33	2
	29	15.01	0.62	2
	30	15.13	1.14	2
	31	15.3	1.57	2
	32	15.44	1.18	2
	33	15.54	1.29	2
	34	15.61	0.46	2
	35	15.69	1.72	2
	36	15.82	1.59	2
	37	16.28	3.25	2
	38	16.36	0.97	2
	39	16.43	1.85	2
	40	16.82	6.93	2
	41	16.82	1.73	2
	42	17.17	1.52	2
	43	17.32	1.44	2
	44	17.39	0.8	2
	45	17.59	2.28	2
	46	17.98	3.88	2
	47	18.05	1.03	2
	48	18.1	2.16	2
	49	18.11	1.69	2
	50	18.18	1.92	2
	51	18.25	1.4	2
	52	18.32	0.7	2
	53	18.76	3.29	2
	54	18.95	1.28	2
	55	19.05	1.99	1.6
	56	19.19	1.87	1.6
	57	19.71	2.81	2
	58	19.84	1.09	2
	59	20.02	1.86	2
	60	20.35	2.55	2
	61	20.6	1.69	2
	62	21.06	4.55	2
	63	21.32	2.48	2
	64	21.56	2.17	2
	65	21.74	0.97	2
	66	22	1.85	2
	67	22.14	0.59	2
	68	22.34	1.22	2
	69	22.73	1.27	2
	70	23.43	2.72	2

