File:              	C:\Qtrac\Data\Daniel M Sørensen\MScan multicentre study\Data from centres\Edmonton\Processed data\MSCC00928D.QZD
Name:              	CA.EDM.NC.7.2
Protocol:          	MSCAN-R2
Date:              	28/9/20
Start time:        	10:22:14
Age:               	75
Sex:               	M
Temperature:       	33.2
S/R sites:         	APB
NC/disease:        	NC
Operator:          	KJ
Comments:
M-SCAN DATA (5.8-0.8m)
Scanpts: 91, 95, 525, 546
Stim. (mA)     	Amp. (mV)
MS.1           	25.5           	7.728
MS.2           	25.5           	7.71
MS.3           	25.5           	7.72
MS.4           	25.5           	7.697
MS.5           	25.5           	7.695
MS.6           	25.5           	7.69
MS.7           	25.5           	7.706
MS.8           	25.5           	7.723
MS.9           	25.5           	7.715
MS.10          	25.5           	7.722
MS.11          	25.5           	7.705
MS.12          	25.5           	7.7
MS.13          	25.5           	7.687
MS.14          	25.5           	7.709
MS.15          	25.5           	7.72
MS.16          	25.5           	7.728
MS.17          	25.5           	7.734
MS.18          	25.5           	7.739
MS.19          	25.5           	7.754
MS.20          	25.5           	7.781
MS.21          	25.5           	7.793
MS.22          	25.5           	7.808
MS.23          	25.397         	7.853
MS.24          	25.347         	7.848
MS.25          	25.297         	7.847
MS.26          	25.245         	7.848
MS.27          	25.195         	7.863
MS.28          	25.145         	7.858
MS.29          	25.095         	7.854
MS.30          	25.045         	7.859
MS.31          	24.995         	7.856
MS.32          	24.945         	7.861
MS.33          	24.895         	7.854
MS.34          	24.845         	7.847
MS.35          	24.795         	7.845
MS.36          	24.747         	7.821
MS.37          	24.698         	7.817
MS.38          	24.647         	7.831
MS.39          	24.597         	7.823
MS.40          	24.55          	7.81
MS.41          	24.5           	7.791
MS.42          	24.45          	7.761
MS.43          	24.403         	7.772
MS.44          	24.352         	7.77
MS.45          	24.305         	7.782
MS.46          	24.257         	7.798
MS.47          	24.207         	7.781
MS.48          	24.16          	7.791
MS.49          	24.11          	7.802
MS.50          	24.062         	7.804
MS.51          	24.015         	7.803
MS.52          	23.967         	7.799
MS.53          	23.92          	7.798
MS.54          	23.87          	7.787
MS.55          	23.823         	7.794
MS.56          	23.775         	7.772
MS.57          	23.727         	7.789
MS.58          	23.68          	7.799
MS.59          	23.632         	7.771
MS.60          	23.587         	7.784
MS.61          	23.54          	7.759
MS.62          	23.493         	7.77
MS.63          	23.445         	7.769
MS.64          	23.397         	7.769
MS.65          	23.352         	7.777
MS.66          	23.305         	7.76
MS.67          	23.257         	7.76
MS.68          	23.212         	7.76
MS.69          	23.165         	7.758
MS.70          	23.12          	7.759
MS.71          	23.073         	7.749
MS.72          	23.028         	7.775
MS.73          	22.98          	7.758
MS.74          	22.935         	7.76
MS.75          	22.89          	7.699
MS.76          	22.842         	7.751
MS.77          	22.797         	7.756
MS.78          	22.752         	7.771
MS.79          	22.707         	7.761
MS.80          	22.663         	7.754
MS.81          	22.618         	7.766
MS.82          	22.57          	7.76
MS.83          	22.525         	7.76
MS.84          	22.48          	7.75
MS.85          	22.435         	7.738
MS.86          	22.392         	7.742
MS.87          	22.347         	7.732
MS.88          	22.302         	7.726
MS.89          	22.257         	7.733
MS.90          	22.212         	7.721
MS.91          	22.167         	7.708
MS.92          	22.125         	7.72
MS.93          	22.08          	7.728
MS.94          	22.035         	7.725
MS.95          	21.993         	7.731
MS.96          	21.948         	7.729
MS.97          	21.905         	7.754
MS.98          	21.86          	7.721
MS.99          	21.817         	7.729
MS.100         	21.772         	7.721
MS.101         	21.73          	7.698
MS.102         	21.685         	7.749
MS.103         	21.642         	7.745
MS.104         	21.6           	7.748
MS.105         	21.557         	7.719
MS.106         	21.512         	7.738
MS.107         	21.47          	7.762
MS.108         	21.427         	7.764
MS.109         	21.385         	7.754
MS.110         	21.342         	7.773
MS.111         	21.3           	7.723
MS.112         	21.257         	7.754
MS.113         	21.215         	7.76
MS.114         	21.172         	7.771
MS.115         	21.13          	7.748
MS.116         	21.087         	7.736
MS.117         	21.045         	7.734
MS.118         	21.002         	7.719
MS.119         	20.96          	7.66
MS.120         	20.92          	7.659
MS.121         	20.877         	7.734
MS.122         	20.835         	7.665
MS.123         	20.795         	7.662
MS.124         	20.752         	7.737
MS.125         	20.71          	7.148
MS.126         	20.67          	7.644
MS.127         	20.627         	7.728
MS.128         	20.587         	7.632
MS.129         	20.545         	7.631
MS.130         	20.505         	7.158
MS.131         	20.465         	7.645
MS.132         	20.422         	7.146
MS.133         	20.382         	7.147
MS.134         	20.342         	7.15
MS.135         	20.3           	7.152
MS.136         	20.26          	7.148
MS.137         	20.22          	7.128
MS.138         	20.18          	7.146
MS.139         	20.14          	7.153
MS.140         	20.1           	7.135
MS.141         	20.06          	7.148
MS.142         	20.02          	7.147
MS.143         	19.98          	7.134
MS.144         	19.94          	7.139
MS.145         	19.9           	7.14
MS.146         	19.86          	7.139
MS.147         	19.82          	7.13
MS.148         	19.78          	7.15
MS.149         	19.74          	7.145
MS.150         	19.7           	7.137
MS.151         	19.663         	7.134
MS.152         	19.622         	7.124
MS.153         	19.583         	7.118
MS.154         	19.545         	7.122
MS.155         	19.505         	7.118
MS.156         	19.465         	7.113
MS.157         	19.427         	7.128
MS.158         	19.387         	7.12
MS.159         	19.35          	7.118
MS.160         	19.31          	7.122
MS.161         	19.272         	7.139
MS.162         	19.235         	7.122
MS.163         	19.195         	7.107
MS.164         	19.157         	7.107
MS.165         	19.12          	7.104
MS.166         	19.08          	7.108
MS.167         	19.042         	7.108
MS.168         	19.005         	6.978
MS.169         	18.967         	7.133
MS.170         	18.927         	6.992
MS.171         	18.89          	6.982
MS.172         	18.852         	6.987
MS.173         	18.815         	6.984
MS.174         	18.778         	6.998
MS.175         	18.74          	6.982
MS.176         	18.702         	6.87
MS.177         	18.665         	6.865
MS.178         	18.628         	6.877
MS.179         	18.59          	7.025
MS.180         	18.555         	6.81
MS.181         	18.517         	6.818
MS.182         	18.48          	6.882
MS.183         	18.442         	6.825
MS.184         	18.405         	6.876
MS.185         	18.37          	6.832
MS.186         	18.333         	6.809
MS.187         	18.295         	6.812
MS.188         	18.26          	6.819
MS.189         	18.222         	6.808
MS.190         	18.188         	6.919
MS.191         	18.15          	6.823
MS.192         	18.115         	6.815
MS.193         	18.077         	6.825
MS.194         	18.042         	6.805
MS.195         	18.005         	6.646
MS.196         	17.97          	6.807
MS.197         	17.932         	6.807
MS.198         	17.897         	6.812
MS.199         	17.862         	6.791
MS.200         	17.827         	6.776
MS.201         	17.79          	6.829
MS.202         	17.755         	6.802
MS.203         	17.72          	6.661
MS.204         	17.685         	6.66
MS.205         	17.65          	6.807
MS.206         	17.612         	6.781
MS.207         	17.577         	6.665
MS.208         	17.542         	6.591
MS.209         	17.507         	6.649
MS.210         	17.472         	6.81
MS.211         	17.438         	6.685
MS.212         	17.403         	6.589
MS.213         	17.37          	6.707
MS.214         	17.335         	6.495
MS.215         	17.3           	6.619
MS.216         	17.265         	6.488
MS.217         	17.23          	6.565
MS.218         	17.195         	6.689
MS.219         	17.163         	6.569
MS.220         	17.128         	6.508
MS.221         	17.092         	6.433
MS.222         	17.06          	6.508
MS.223         	17.025         	6.429
MS.224         	16.99          	6.364
MS.225         	16.958         	6.589
MS.226         	16.922         	6.078
MS.227         	16.89          	6.129
MS.228         	16.855         	5.931
MS.229         	16.823         	5.974
MS.230         	16.788         	6.06
MS.231         	16.755         	6.046
MS.232         	16.72          	5.977
MS.233         	16.688         	5.846
MS.234         	16.655         	6.028
MS.235         	16.62          	5.906
MS.236         	16.587         	5.991
MS.237         	16.555         	5.812
MS.238         	16.522         	5.775
MS.239         	16.487         	5.881
MS.240         	16.455         	5.771
MS.241         	16.422         	5.886
MS.242         	16.39          	5.806
MS.243         	16.358         	5.804
MS.244         	16.325         	5.662
MS.245         	16.292         	5.768
MS.246         	16.26          	5.63
MS.247         	16.227         	5.702
MS.248         	16.195         	5.385
MS.249         	16.163         	5.713
MS.250         	16.13          	5.413
MS.251         	16.097         	5.353
MS.252         	16.065         	5.343
MS.253         	16.032         	5.344
MS.254         	16.003         	5.293
MS.255         	15.97          	5.254
MS.256         	15.938         	5.205
MS.257         	15.905         	5.221
MS.258         	15.875         	5.493
MS.259         	15.842         	5.516
MS.260         	15.81          	5.178
MS.261         	15.78          	5.176
MS.262         	15.747         	5.11
MS.263         	15.715         	5.155
MS.264         	15.685         	5.209
MS.265         	15.652         	5.095
MS.266         	15.622         	4.869
MS.267         	15.59          	4.828
MS.268         	15.56          	4.802
MS.269         	15.527         	5.071
MS.270         	15.497         	4.717
MS.271         	15.467         	4.39
MS.272         	15.435         	4.438
MS.273         	15.405         	4.658
MS.274         	15.375         	4.421
MS.275         	15.342         	4.562
MS.276         	15.312         	4.744
MS.277         	15.282         	4.683
MS.278         	15.252         	4.381
MS.279         	15.22          	4.121
MS.280         	15.19          	4.495
MS.281         	15.16          	4.15
MS.282         	15.13          	4.242
MS.283         	15.1           	4.194
MS.284         	15.07          	4.258
MS.285         	15.04          	4.127
MS.286         	15.01          	4.109
MS.287         	14.98          	4.153
MS.288         	14.95          	3.89
MS.289         	14.92          	4.039
MS.290         	14.89          	3.812
MS.291         	14.86          	3.829
MS.292         	14.83          	3.839
MS.293         	14.8           	3.84
MS.294         	14.77          	3.934
MS.295         	14.742         	3.781
MS.296         	14.712         	3.345
MS.297         	14.682         	3.34
MS.298         	14.652         	3.519
MS.299         	14.625         	3.597
MS.300         	14.595         	3.671
MS.301         	14.565         	3.245
MS.302         	14.537         	3.503
MS.303         	14.507         	3.091
MS.304         	14.477         	3.413
MS.305         	14.45          	3.282
MS.306         	14.42          	3.412
MS.307         	14.392         	3.546
MS.308         	14.362         	3.311
MS.309         	14.335         	2.981
MS.310         	14.305         	3.13
MS.311         	14.278         	3.151
MS.312         	14.25          	3.142
MS.313         	14.22          	2.979
MS.314         	14.193         	2.942
MS.315         	14.162         	2.876
MS.316         	14.135         	2.799
MS.317         	14.108         	2.98
MS.318         	14.08          	3.048
MS.319         	14.05          	2.78
MS.320         	14.023         	2.759
MS.321         	13.995         	2.782
MS.322         	13.967         	2.69
MS.323         	13.94          	2.561
MS.324         	13.91          	2.509
MS.325         	13.882         	2.637
MS.326         	13.855         	2.567
MS.327         	13.827         	2.638
MS.328         	13.8           	2.809
MS.329         	13.773         	2.635
MS.330         	13.745         	2.565
MS.331         	13.717         	2.412
MS.332         	13.69          	2.49
MS.333         	13.662         	2.367
MS.334         	13.635         	2.192
MS.335         	13.608         	2.264
MS.336         	13.58          	2.499
MS.337         	13.555         	2.134
MS.338         	13.528         	2.028
MS.339         	13.5           	2.147
MS.340         	13.472         	2.14
MS.341         	13.445         	2.168
MS.342         	13.42          	2.31
MS.343         	13.392         	2.222
MS.344         	13.365         	2.003
MS.345         	13.34          	1.976
MS.346         	13.312         	1.97
MS.347         	13.285         	2.023
MS.348         	13.26          	1.893
MS.349         	13.233         	2.048
MS.350         	13.205         	2.125
MS.351         	13.18          	1.879
MS.352         	13.153         	1.886
MS.353         	13.127         	1.763
MS.354         	13.1           	1.873
MS.355         	13.075         	1.858
MS.356         	13.047         	1.813
MS.357         	13.023         	1.722
MS.358         	12.997         	1.527
MS.359         	12.97          	1.407
MS.360         	12.945         	1.46
MS.361         	12.917         	1.537
MS.362         	12.892         	1.26
MS.363         	12.867         	1.436
MS.364         	12.842         	1.274
MS.365         	12.815         	1.509
MS.366         	12.79          	1.376
MS.367         	12.765         	1.21
MS.368         	12.74          	1.173
MS.369         	12.712         	1.176
MS.370         	12.688         	1.183
MS.371         	12.662         	1.106
MS.372         	12.637         	1.174
MS.373         	12.613         	1.116
MS.374         	12.587         	1.304
MS.375         	12.562         	1.127
MS.376         	12.537         	0.992
MS.377         	12.512         	1.063
MS.378         	12.488         	1.014
MS.379         	12.462         	0.94
MS.380         	12.438         	0.978
MS.381         	12.412         	0.924
MS.382         	12.387         	1
MS.383         	12.363         	0.88
MS.384         	12.337         	0.974
MS.385         	12.312         	0.918
MS.386         	12.287         	0.869
MS.387         	12.265         	0.935
MS.388         	12.24          	0.944
MS.389         	12.215         	0.89
MS.390         	12.19          	0.89
MS.391         	12.167         	0.833
MS.392         	12.142         	0.999
MS.393         	12.117         	0.864
MS.394         	12.092         	0.83
MS.395         	12.07          	0.947
MS.396         	12.045         	0.885
MS.397         	12.02          	0.751
MS.398         	11.997         	0.728
MS.399         	11.972         	0.804
MS.400         	11.95          	0.851
MS.401         	11.925         	0.693
MS.402         	11.903         	0.706
MS.403         	11.877         	0.677
MS.404         	11.855         	0.686
MS.405         	11.83          	0.719
MS.406         	11.807         	0.68
MS.407         	11.782         	0.724
MS.408         	11.76          	0.646
MS.409         	11.735         	0.665
MS.410         	11.712         	0.695
MS.411         	11.69          	0.651
MS.412         	11.665         	0.69
MS.413         	11.642         	0.654
MS.414         	11.62          	0.593
MS.415         	11.595         	0.575
MS.416         	11.572         	0.551
MS.417         	11.55          	0.623
MS.418         	11.528         	0.552
MS.419         	11.505         	0.564
MS.420         	11.48          	0.554
MS.421         	11.457         	0.532
MS.422         	11.435         	0.439
MS.423         	11.412         	0.548
MS.424         	11.39          	0.532
MS.425         	11.367         	0.532
MS.426         	11.345         	0.636
MS.427         	11.32          	0.511
MS.428         	11.297         	0.443
MS.429         	11.275         	0.359
MS.430         	11.252         	0.441
MS.431         	11.23          	0.46
MS.432         	11.207         	0.477
MS.433         	11.185         	0.444
MS.434         	11.165         	0.443
MS.435         	11.142         	0.442
MS.436         	11.12          	0.276
MS.437         	11.097         	0.441
MS.438         	11.075         	0.446
MS.439         	11.052         	0.439
MS.440         	11.03          	0.277
MS.441         	11.007         	0.446
MS.442         	10.988         	0.278
MS.443         	10.965         	0.446
MS.444         	10.943         	0.15
MS.445         	10.92          	0.278
MS.446         	10.9           	0.142
MS.447         	10.877         	0.277
MS.448         	10.855         	0.276
MS.449         	10.835         	0.312
MS.450         	10.812         	0.277
MS.451         	10.79          	0.276
MS.452         	10.77          	0.278
MS.453         	10.747         	0.277
MS.454         	10.725         	0.146
MS.455         	10.705         	0.146
MS.456         	10.682         	0.145
MS.457         	10.662         	0.277
MS.458         	10.64          	0.278
MS.459         	10.62          	0.276
MS.460         	10.597         	0.149
MS.461         	10.577         	0.281
MS.462         	10.555         	0.145
MS.463         	10.535         	0.15
MS.464         	10.512         	0.151
MS.465         	10.492         	0.281
MS.466         	10.472         	0.146
MS.467         	10.45          	0.146
MS.468         	10.43          	0.148
MS.469         	10.41          	0.145
MS.470         	10.387         	0.149
MS.471         	10.367         	0.148
MS.472         	10.347         	0.146
MS.473         	10.325         	0.151
MS.474         	10.305         	0.154
MS.475         	10.285         	0.146
MS.476         	10.265         	0.145
MS.477         	10.245         	0.146
MS.478         	10.222         	0.148
MS.479         	10.202         	0.151
MS.480         	10.182         	0.148
MS.481         	10.162         	0.15
MS.482         	10.142         	0.154
MS.483         	10.122         	0.149
MS.484         	10.102         	0.138
MS.485         	10.08          	0.149
MS.486         	10.06          	0.151
MS.487         	10.04          	0.15
MS.488         	10.02          	0.15
MS.489         	10             	0.15
MS.490         	9.98           	0.151
MS.491         	9.96           	0.15
MS.492         	9.94           	0.149
MS.493         	9.92           	0.142
MS.494         	9.903          	0.15
MS.495         	9.882          	0.143
MS.496         	9.863          	0.14
MS.497         	9.842          	0.143
MS.498         	9.823          	0.153
MS.499         	9.802          	0.143
MS.500         	9.782          	0.139
MS.501         	9.762          	0.142
MS.502         	9.745          	0.144
MS.503         	9.725          	0.142
MS.504         	9.705          	0.142
MS.505         	9.685          	0.143
MS.506         	9.667          	0.142
MS.507         	9.648          	-0.001
MS.508         	9.627          	-0.001
MS.509         	9.608          	0.000
MS.510         	9.59           	0.000
MS.511         	9.57           	0.142
MS.512         	9.552          	0.142
MS.513         	9.532          	0.144
MS.514         	9.512          	0.000
MS.515         	9.495          	0.000
MS.516         	9.475          	0.000
MS.517         	9.455          	0.000
MS.518         	9.438          	0.001
MS.519         	9.417          	0.000
MS.520         	9.4            	0.000
MS.521         	9.38           	0.001
MS.522         	9.363          	0.000
MS.523         	9.342          	0.000
MS.524         	9.325          	0.001
MS.525         	9.305          	0.001
MS.526         	9.287          	0.000
MS.527         	9.27           	0.001
MS.528         	9.25           	-0.001
MS.529         	9.233          	0.000
MS.530         	9.212          	0.000
MS.531         	9.195          	0.000
MS.532         	9.177          	0.001
MS.533         	9.158          	0.000
MS.534         	9.14           	0.001
MS.535         	9.122          	0.000
MS.536         	9.102          	0.000
MS.537         	9.085          	0.001
MS.538         	9.068          	0.000
MS.539         	9.05           	0.000
MS.540         	9.03           	0.002
MS.541         	9.012          	0.004
MS.542         	8.995          	0.001
MS.543         	8.977          	0.000
MS.544         	8.96           	0.002
MS.545         	8.94           	-0.001
MS.546         	8.922          	0.000
DERIVED EXCITABILITY VARIABLES
Program = QTracP 3/4/2020
Threshold method = 6 (optimised for CAP, using data for present condition only)
SR method = 1 (using actual data values)
6.                 	0.000               	Peak response\(mV)
9.                 	33.2                	Temperature ( C)
17.                	75                  	Age (years)
18.                	1                   	Sex (M=1, F=2)

EXTRA VARIABLES

MScPeak(mV) = 7.73
MScS5(mA) = 11.09
MScS50(mA) = 14.82
MScS95(mA) = 20.57
MScNSteps = 4
MScSteps(%) = 14.2
MScStepMax(%) = 6.1
MScD50 = 41
MScSlope = 4.59
MSFPeakAmp(mV) = 7.72
MSFNUnits = 97
MSFMeanUnitAmp(uV) = 79.6
MSFHuntTime(m) = 2.21
MSFError(%) = 6.79
MSFNLarge = 29.05
MSFMedianAmp(%) = 0.921
MSFMedianAmp(mV) = 0.0711
MSFHalfAmpAmp(%) = 1.12
MSFHalfAmpAmp(mV) = 0.0867
MSFLargestAmp(%) = 5.53
MSFLargestAmp(mV) = 0.427
MSFMeanRS(%) = 2
MSFOpts = 10106121
MScDuration(min) = 5
MSFTraces = 456
MSFSizeLimit(uV) = 19.3
MSFLimitType = 1
MSFSmallestAmp(uV) = 21.5

EXTRA WAVEFORMS


!MScan Model
!97
	1	9.62	1.81	2
	2	10.61	1.14	2
	3	10.95	1.34	2
	4	11.15	1.38	2
	5	11.33	0.9	2
	6	11.48	1	2
	7	11.53	0.28	2
	8	11.63	0.38	2
	9	11.69	0.44	2
	10	11.78	0.43	2
	11	11.88	0.74	2
	12	11.96	0.49	2
	13	12.08	0.81	2
	14	12.29	1.18	2
	15	12.4	0.56	2
	16	12.45	0.53	2
	17	12.51	0.56	2
	18	12.56	0.46	2
	19	12.61	0.64	2
	20	12.68	0.9	2
	21	12.74	0.65	2
	22	12.77	0.54	2
	23	12.81	0.57	2
	24	12.85	0.69	2
	25	12.89	0.68	2
	26	12.92	0.62	2
	27	12.95	0.72	2
	28	12.99	0.79	2
	29	13.02	1.08	2
	30	13.1	0.79	2
	31	13.15	0.97	2
	32	13.22	1.74	2
	33	13.36	1.58	2
	34	13.46	1.02	2
	35	13.53	1.02	2
	36	13.6	1.28	2
	37	13.68	1.15	2
	38	13.77	1.18	2
	39	13.89	2.12	2
	40	13.96	0.71	2
	41	14	0.35	2
	42	14.04	0.55	2
	43	14.09	0.76	2
	44	14.14	0.92	2
	45	14.19	1.01	2
	46	14.25	1.09	2
	47	14.33	1.06	2
	48	14.54	3.08	2
	49	14.65	2.12	2
	50	14.7	0.83	2
	51	14.76	1.1	2
	52	14.81	0.98	2
	53	14.85	0.7	2
	54	14.89	0.66	2
	55	14.93	0.93	2
	56	14.98	1.01	2
	57	15.02	0.82	2
	58	15.07	0.92	2
	59	15.15	1.56	2
	60	15.27	1.55	2
	61	15.37	2.07	2
	62	15.46	1.83	2
	63	15.55	1.72	2
	64	15.62	1.16	2
	65	15.69	1.16	2
	66	15.81	2.23	2
	67	15.95	1.89	2
	68	16.05	1.12	2
	69	16.12	0.54	2
	70	16.16	0.54	2
	71	16.21	0.9	2
	72	16.27	0.75	2
	73	16.32	0.66	2
	74	16.39	0.87	2
	75	16.47	1.11	2
	76	16.61	1.26	2
	77	16.72	1.08	2
	78	16.78	0.85	2
	79	16.84	0.98	2
	80	16.9	0.99	2
	81	16.96	0.4	2
	82	17.02	0.86	1.6
	83	17.13	1.58	2
	84	17.3	1.17	2
	85	17.56	1.76	2
	86	18.19	1.23	2
	87	18.48	0.58	2
	88	18.6	0.51	2
	89	18.7	0.4	2
	90	18.77	0.4	2
	91	18.88	0.42	2
	92	18.94	0.34	2
	93	19.03	0.46	2
	94	19.24	0.61	2
	95	20.16	1.01	2
	96	20.85	5.53	2
	97	21.14	1.17	2.1

