File:              	C:\Qtrac\Data\Daniel M Sørensen\MScan multicentre study\Data from centres\Edmonton\MSCC00215A.QZD
Name:              	CA.EDM.NC.2.2
Protocol:          	MSCAN-R2
Date:              	15/2/20
Start time:        	09:51:29
Age:               	56
Sex:               	F
Temperature:       	34.4
S/R sites:         	Median Wr-APB
NC/disease:        	NC
Operator:          	KJ
Comments:
M-SCAN DATA (6.8-1.3m)
Scanpts: 219, 230, 588, 591
Stim. (mA)     	Amp. (mV)
MS.1           	15             	7.614
MS.2           	15             	7.603
MS.3           	15             	7.612
MS.4           	15             	7.612
MS.5           	15             	7.618
MS.6           	15             	7.626
MS.7           	15             	7.62
MS.8           	15             	7.636
MS.9           	15             	7.591
MS.10          	15             	7.605
MS.11          	15             	7.648
MS.12          	15             	7.66
MS.13          	15             	7.662
MS.14          	15             	7.662
MS.15          	15             	7.684
MS.16          	15             	7.678
MS.17          	15             	7.68
MS.18          	15             	7.688
MS.19          	15             	7.714
MS.20          	15             	7.708
MS.21          	15             	7.706
MS.22          	15             	7.722
MS.23          	15             	7.72
MS.24          	14.94          	7.742
MS.25          	14.91          	7.724
MS.26          	14.88          	7.744
MS.27          	14.85          	7.736
MS.28          	14.82          	7.74
MS.29          	14.792         	7.746
MS.30          	14.762         	7.748
MS.31          	14.733         	7.769
MS.32          	14.702         	7.769
MS.33          	14.672         	7.775
MS.34          	14.645         	7.781
MS.35          	14.615         	7.787
MS.36          	14.585         	7.783
MS.37          	14.557         	7.791
MS.38          	14.527         	7.797
MS.39          	14.497         	7.789
MS.40          	14.47          	7.793
MS.41          	14.44          	7.795
MS.42          	14.412         	7.801
MS.43          	14.382         	7.789
MS.44          	14.355         	7.795
MS.45          	14.325         	7.791
MS.46          	14.297         	7.799
MS.47          	14.267         	7.795
MS.48          	14.24          	7.803
MS.49          	14.212         	7.809
MS.50          	14.182         	7.819
MS.51          	14.155         	7.803
MS.52          	14.127         	7.817
MS.53          	14.097         	7.821
MS.54          	14.07          	7.831
MS.55          	14.042         	7.819
MS.56          	14.015         	7.843
MS.57          	13.985         	7.785
MS.58          	13.957         	7.777
MS.59          	13.93          	7.72
MS.60          	13.903         	7.728
MS.61          	13.875         	7.724
MS.62          	13.847         	7.746
MS.63          	13.82          	7.767
MS.64          	13.792         	7.799
MS.65          	13.765         	7.811
MS.66          	13.737         	7.825
MS.67          	13.71          	7.815
MS.68          	13.682         	7.819
MS.69          	13.655         	7.815
MS.70          	13.627         	7.827
MS.71          	13.6           	7.831
MS.72          	13.572         	7.831
MS.73          	13.545         	7.829
MS.74          	13.517         	7.805
MS.75          	13.492         	7.821
MS.76          	13.465         	7.825
MS.77          	13.438         	7.827
MS.78          	13.41          	7.841
MS.79          	13.385         	7.831
MS.80          	13.358         	7.845
MS.81          	13.33          	7.837
MS.82          	13.305         	7.861
MS.83          	13.278         	7.857
MS.84          	13.25          	7.853
MS.85          	13.225         	7.849
MS.86          	13.197         	7.845
MS.87          	13.172         	7.857
MS.88          	13.145         	7.867
MS.89          	13.12          	7.857
MS.90          	13.092         	7.865
MS.91          	13.068         	7.859
MS.92          	13.04          	7.885
MS.93          	13.015         	7.857
MS.94          	12.987         	7.869
MS.95          	12.962         	7.867
MS.96          	12.938         	7.873
MS.97          	12.91          	7.869
MS.98          	12.885         	7.867
MS.99          	12.86          	7.889
MS.100         	12.832         	7.871
MS.101         	12.807         	7.857
MS.102         	12.782         	7.877
MS.103         	12.757         	7.873
MS.104         	12.73          	7.885
MS.105         	12.705         	7.861
MS.106         	12.68          	7.863
MS.107         	12.655         	7.861
MS.108         	12.63          	7.883
MS.109         	12.605         	7.918
MS.110         	12.58          	7.869
MS.111         	12.555         	7.803
MS.112         	12.53          	7.843
MS.113         	12.505         	7.853
MS.114         	12.48          	7.865
MS.115         	12.455         	7.825
MS.116         	12.43          	7.839
MS.117         	12.405         	7.809
MS.118         	12.38          	7.807
MS.119         	12.355         	7.811
MS.120         	12.33          	7.861
MS.121         	12.305         	7.883
MS.122         	12.28          	7.871
MS.123         	12.257         	7.896
MS.124         	12.233         	7.889
MS.125         	12.207         	7.889
MS.126         	12.182         	7.881
MS.127         	12.157         	7.871
MS.128         	12.135         	7.881
MS.129         	12.11          	7.873
MS.130         	12.085         	7.896
MS.131         	12.062         	7.871
MS.132         	12.037         	7.891
MS.133         	12.012         	7.893
MS.134         	11.99          	7.891
MS.135         	11.965         	7.881
MS.136         	11.943         	7.893
MS.137         	11.917         	7.902
MS.138         	11.895         	7.891
MS.139         	11.87          	7.898
MS.140         	11.847         	7.887
MS.141         	11.822         	7.908
MS.142         	11.8           	7.922
MS.143         	11.775         	7.896
MS.144         	11.752         	7.865
MS.145         	11.73          	7.841
MS.146         	11.705         	7.863
MS.147         	11.682         	7.883
MS.148         	11.657         	7.877
MS.149         	11.635         	7.867
MS.150         	11.613         	7.881
MS.151         	11.59          	7.904
MS.152         	11.565         	7.908
MS.153         	11.542         	7.916
MS.154         	11.52          	7.9
MS.155         	11.497         	7.926
MS.156         	11.472         	7.92
MS.157         	11.45          	7.928
MS.158         	11.427         	7.92
MS.159         	11.405         	7.928
MS.160         	11.382         	7.912
MS.161         	11.36          	7.932
MS.162         	11.337         	7.928
MS.163         	11.315         	7.93
MS.164         	11.292         	7.928
MS.165         	11.27          	7.938
MS.166         	11.247         	7.916
MS.167         	11.225         	7.918
MS.168         	11.202         	7.932
MS.169         	11.18          	7.936
MS.170         	11.157         	7.958
MS.171         	11.135         	7.918
MS.172         	11.113         	7.906
MS.173         	11.09          	7.93
MS.174         	11.068         	7.94
MS.175         	11.045         	7.934
MS.176         	11.023         	7.926
MS.177         	11.002         	7.93
MS.178         	10.98          	7.932
MS.179         	10.957         	7.928
MS.180         	10.935         	7.91
MS.181         	10.915         	7.934
MS.182         	10.892         	7.962
MS.183         	10.87          	7.936
MS.184         	10.847         	7.952
MS.185         	10.827         	7.962
MS.186         	10.805         	7.934
MS.187         	10.785         	7.938
MS.188         	10.762         	7.936
MS.189         	10.74          	7.95
MS.190         	10.72          	7.95
MS.191         	10.698         	7.96
MS.192         	10.677         	7.968
MS.193         	10.655         	7.964
MS.194         	10.635         	7.95
MS.195         	10.613         	7.96
MS.196         	10.592         	7.978
MS.197         	10.57          	7.96
MS.198         	10.55          	7.972
MS.199         	10.528         	7.97
MS.200         	10.507         	7.974
MS.201         	10.485         	7.99
MS.202         	10.465         	7.982
MS.203         	10.445         	7.984
MS.204         	10.422         	7.978
MS.205         	10.403         	7.98
MS.206         	10.382         	7.978
MS.207         	10.36          	8.002
MS.208         	10.34          	7.982
MS.209         	10.32          	7.984
MS.210         	10.3           	7.988
MS.211         	10.278         	7.99
MS.212         	10.257         	7.976
MS.213         	10.238         	7.998
MS.214         	10.217         	7.986
MS.215         	10.198         	7.98
MS.216         	10.175         	7.998
MS.217         	10.155         	7.984
MS.218         	10.135         	7.986
MS.219         	10.115         	7.994
MS.220         	10.095         	7.986
MS.221         	10.075         	8
MS.222         	10.055         	7.986
MS.223         	10.035         	7.99
MS.224         	10.015         	7.996
MS.225         	9.995          	8
MS.226         	9.975          	7.976
MS.227         	9.955          	7.988
MS.228         	9.935          	7.988
MS.229         	9.915          	7.986
MS.230         	9.895          	7.998
MS.231         	9.875          	7.994
MS.232         	9.855          	7.996
MS.233         	9.835          	7.99
MS.234         	9.818          	7.996
MS.235         	9.797          	8
MS.236         	9.778          	7.994
MS.237         	9.757          	7.992
MS.238         	9.738          	7.992
MS.239         	9.717          	7.988
MS.240         	9.7            	8
MS.241         	9.68           	7.97
MS.242         	9.66           	7.996
MS.243         	9.64           	8.002
MS.244         	9.622          	8.01
MS.245         	9.602          	7.956
MS.246         	9.582          	8.012
MS.247         	9.565          	8.002
MS.248         	9.545          	8
MS.249         	9.525          	7.968
MS.250         	9.507          	7.978
MS.251         	9.488          	7.95
MS.252         	9.47           	7.928
MS.253         	9.45           	7.98
MS.254         	9.432          	7.922
MS.255         	9.412          	7.926
MS.256         	9.395          	7.95
MS.257         	9.375          	7.914
MS.258         	9.358          	7.521
MS.259         	9.337          	7.517
MS.260         	9.32           	7.879
MS.261         	9.3            	7.906
MS.262         	9.283          	7.563
MS.263         	9.262          	7.303
MS.264         	9.245          	7.555
MS.265         	9.225          	7.313
MS.266         	9.207          	7.311
MS.267         	9.19           	7.505
MS.268         	9.17           	7.283
MS.269         	9.153          	7.515
MS.270         	9.135          	7.869
MS.271         	9.115          	7.263
MS.272         	9.097          	7.507
MS.273         	9.08           	7.654
MS.274         	9.062          	7.475
MS.275         	9.042          	7.261
MS.276         	9.025          	7.277
MS.277         	9.007          	7.269
MS.278         	8.99           	7.283
MS.279         	8.972          	7.029
MS.280         	8.952          	7.307
MS.281         	8.935          	7.229
MS.282         	8.917          	7.229
MS.283         	8.9            	7.039
MS.284         	8.882          	7.237
MS.285         	8.865          	7.265
MS.286         	8.847          	7.039
MS.287         	8.83           	7.013
MS.288         	8.812          	7.239
MS.289         	8.795          	7.023
MS.290         	8.775          	7.019
MS.291         	8.757          	7.009
MS.292         	8.74           	7.023
MS.293         	8.722          	7.013
MS.294         	8.707          	6.774
MS.295         	8.69           	7.009
MS.296         	8.672          	7.199
MS.297         	8.655          	6.979
MS.298         	8.637          	6.951
MS.299         	8.62           	6.963
MS.300         	8.602          	6.987
MS.301         	8.585          	6.943
MS.302         	8.568          	6.935
MS.303         	8.55           	6.735
MS.304         	8.535          	6.717
MS.305         	8.517          	6.947
MS.306         	8.5            	6.701
MS.307         	8.483          	6.333
MS.308         	8.465          	6.725
MS.309         	8.45           	6.725
MS.310         	8.432          	6.532
MS.311         	8.415          	6.965
MS.312         	8.398          	6.719
MS.313         	8.382          	6.637
MS.314         	8.365          	6.697
MS.315         	8.347          	6.377
MS.316         	8.332          	6.538
MS.317         	8.315          	6.357
MS.318         	8.297          	6.347
MS.319         	8.283          	6.347
MS.320         	8.265          	6.502
MS.321         	8.247          	6.478
MS.322         	8.233          	6.349
MS.323         	8.215          	6.532
MS.324         	8.2            	6.337
MS.325         	8.182          	6.282
MS.326         	8.167          	6.405
MS.327         	8.15           	6.214
MS.328         	8.135          	6.405
MS.329         	8.117          	6.331
MS.330         	8.102          	6.278
MS.331         	8.085          	6.063
MS.332         	8.07           	6.185
MS.333         	8.052          	6.131
MS.334         	8.037          	6.202
MS.335         	8.02           	6.139
MS.336         	8.005          	6.135
MS.337         	7.99           	6.121
MS.338         	7.972          	6.095
MS.339         	7.957          	6.087
MS.340         	7.94           	5.883
MS.341         	7.925          	5.966
MS.342         	7.91           	6.047
MS.343         	7.892          	5.831
MS.344         	7.878          	5.805
MS.345         	7.862          	5.897
MS.346         	7.847          	5.738
MS.347         	7.83           	5.934
MS.348         	7.815          	5.668
MS.349         	7.8            	5.388
MS.350         	7.785          	5.293
MS.351         	7.767          	5.432
MS.352         	7.753          	5.855
MS.353         	7.737          	5.879
MS.354         	7.722          	5.758
MS.355         	7.707          	5.609
MS.356         	7.69           	5.906
MS.357         	7.675          	5.638
MS.358         	7.66           	5.829
MS.359         	7.645          	5.636
MS.360         	7.63           	5.515
MS.361         	7.615          	5.44
MS.362         	7.6            	5.517
MS.363         	7.585          	5.001
MS.364         	7.57           	5.128
MS.365         	7.555          	4.951
MS.366         	7.537          	4.49
MS.367         	7.523          	4.57
MS.368         	7.507          	4.645
MS.369         	7.492          	4.371
MS.370         	7.477          	4.943
MS.371         	7.462          	4.673
MS.372         	7.447          	4.788
MS.373         	7.435          	4.671
MS.374         	7.42           	5.19
MS.375         	7.405          	5.227
MS.376         	7.39           	5.14
MS.377         	7.375          	5.114
MS.378         	7.36           	4.784
MS.379         	7.345          	5.205
MS.380         	7.33           	4.943
MS.381         	7.315          	4.888
MS.382         	7.302          	4.931
MS.383         	7.287          	4.828
MS.384         	7.273          	4.677
MS.385         	7.257          	4.413
MS.386         	7.242          	4.786
MS.387         	7.227          	4.763
MS.388         	7.215          	3.97
MS.389         	7.2            	3.932
MS.390         	7.185          	3.922
MS.391         	7.17           	3.668
MS.392         	7.157          	3.374
MS.393         	7.142          	3.609
MS.394         	7.128          	3.708
MS.395         	7.115          	3.527
MS.396         	7.1            	3.41
MS.397         	7.085          	3.48
MS.398         	7.072          	3.513
MS.399         	7.057          	3.43
MS.400         	7.043          	3.408
MS.401         	7.03           	3.329
MS.402         	7.015          	3.398
MS.403         	7              	3.561
MS.404         	6.987          	3.456
MS.405         	6.972          	3.188
MS.406         	6.96           	3.424
MS.407         	6.945          	3.092
MS.408         	6.932          	3.269
MS.409         	6.918          	3.335
MS.410         	6.902          	3.279
MS.411         	6.89           	3.217
MS.412         	6.875          	3.15
MS.413         	6.862          	3.023
MS.414         	6.847          	3.136
MS.415         	6.835          	3.053
MS.416         	6.822          	3.116
MS.417         	6.807          	3.084
MS.418         	6.795          	3.184
MS.419         	6.78           	3.025
MS.420         	6.767          	3.102
MS.421         	6.753          	3.021
MS.422         	6.74           	2.917
MS.423         	6.727          	2.925
MS.424         	6.712          	2.937
MS.425         	6.7            	2.771
MS.426         	6.685          	2.832
MS.427         	6.672          	2.987
MS.428         	6.66           	2.544
MS.429         	6.645          	2.816
MS.430         	6.632          	2.546
MS.431         	6.62           	2.461
MS.432         	6.608          	2.065
MS.433         	6.592          	2.534
MS.434         	6.58           	2.651
MS.435         	6.567          	1.934
MS.436         	6.555          	1.962
MS.437         	6.54           	1.833
MS.438         	6.527          	2.058
MS.439         	6.515          	2.028
MS.440         	6.503          	2.01
MS.441         	6.487          	1.996
MS.442         	6.475          	1.942
MS.443         	6.462          	1.412
MS.444         	6.45           	1.845
MS.445         	6.438          	1.543
MS.446         	6.425          	1.599
MS.447         	6.41           	1.577
MS.448         	6.398          	2.073
MS.449         	6.385          	1.543
MS.450         	6.372          	1.424
MS.451         	6.36           	1.291
MS.452         	6.347          	1.474
MS.453         	6.335          	1.345
MS.454         	6.322          	1.472
MS.455         	6.31           	1.591
MS.456         	6.297          	1.184
MS.457         	6.285          	1.49
MS.458         	6.273          	1.192
MS.459         	6.26           	1.211
MS.460         	6.247          	1.476
MS.461         	6.235          	1.19
MS.462         	6.222          	1.249
MS.463         	6.21           	1.142
MS.464         	6.197          	1.063
MS.465         	6.185          	1.122
MS.466         	6.172          	1.084
MS.467         	6.16           	1.076
MS.468         	6.148          	1.013
MS.469         	6.135          	1.186
MS.470         	6.122          	1.049
MS.471         	6.11           	0.963
MS.472         	6.097          	0.937
MS.473         	6.088          	0.86
MS.474         	6.075          	0.898
MS.475         	6.062          	0.781
MS.476         	6.05           	0.761
MS.477         	6.037          	0.777
MS.478         	6.025          	0.596
MS.479         	6.012          	0.659
MS.480         	6.003          	0.775
MS.481         	5.99           	0.719
MS.482         	5.977          	0.604
MS.483         	5.965          	0.848
MS.484         	5.955          	0.727
MS.485         	5.942          	0.699
MS.486         	5.93           	0.683
MS.487         	5.918          	0.781
MS.488         	5.907          	0.842
MS.489         	5.895          	0.846
MS.490         	5.882          	0.733
MS.491         	5.87           	0.649
MS.492         	5.86           	0.628
MS.493         	5.847          	0.616
MS.494         	5.835          	0.673
MS.495         	5.825          	0.695
MS.496         	5.812          	0.624
MS.497         	5.8            	0.721
MS.498         	5.79           	0.643
MS.499         	5.777          	0.753
MS.500         	5.767          	0.522
MS.501         	5.755          	0.455
MS.502         	5.742          	0.56
MS.503         	5.733          	0.397
MS.504         	5.72           	0.302
MS.505         	5.71           	0.377
MS.506         	5.697          	0.357
MS.507         	5.685          	0.405
MS.508         	5.675          	0.228
MS.509         	5.662          	0.288
MS.510         	5.652          	0.371
MS.511         	5.64           	0.417
MS.512         	5.63           	0.395
MS.513         	5.617          	0.373
MS.514         	5.608          	0.373
MS.515         	5.595          	0.226
MS.516         	5.585          	0.179
MS.517         	5.572          	0.218
MS.518         	5.562          	0.135
MS.519         	5.552          	0.107
MS.520         	5.54           	0.306
MS.521         	5.53           	0.159
MS.522         	5.517          	0.129
MS.523         	5.507          	0.246
MS.524         	5.495          	0.133
MS.525         	5.485          	0.143
MS.526         	5.475          	0.097
MS.527         	5.463          	0.143
MS.528         	5.452          	0.218
MS.529         	5.443          	0.145
MS.530         	5.43           	0.097
MS.531         	5.42           	0.085
MS.532         	5.41           	0.163
MS.533         	5.398          	0.073
MS.534         	5.387          	0.077
MS.535         	5.378          	0.121
MS.536         	5.365          	0.077
MS.537         	5.355          	0.066
MS.538         	5.345          	0.075
MS.539         	5.332          	0.085
MS.540         	5.322          	0.046
MS.541         	5.312          	0.064
MS.542         	5.302          	0.083
MS.543         	5.29           	0.044
MS.544         	5.28           	0.077
MS.545         	5.27           	0.085
MS.546         	5.26           	0.066
MS.547         	5.25           	0.073
MS.548         	5.237          	0.048
MS.549         	5.227          	0.087
MS.550         	5.217          	0.058
MS.551         	5.207          	0.064
MS.552         	5.197          	0.048
MS.553         	5.188          	0.046
MS.554         	5.175          	0.077
MS.555         	5.165          	0.048
MS.556         	5.155          	0.046
MS.557         	5.145          	0.048
MS.558         	5.135          	0.028
MS.559         	5.125          	0.062
MS.560         	5.115          	0.032
MS.561         	5.105          	0.04
MS.562         	5.095          	0.028
MS.563         	5.082          	0.034
MS.564         	5.072          	0.022
MS.565         	5.062          	0.034
MS.566         	5.052          	0.006
MS.567         	5.043          	0.048
MS.568         	5.032          	0.008
MS.569         	5.023          	0.008
MS.570         	5.012          	0.012
MS.571         	5.003          	0.008
MS.572         	4.992          	0.01
MS.573         	4.983          	0.036
MS.574         	4.972          	0.014
MS.575         	4.963          	0.034
MS.576         	4.952          	0.012
MS.577         	4.943          	0.01
MS.578         	4.932          	0.01
MS.579         	4.922          	0.012
MS.580         	4.915          	0.008
MS.581         	4.905          	0.006
MS.582         	4.895          	0.02
MS.583         	4.885          	0.012
MS.584         	4.875          	0.014
MS.585         	4.865          	0.01
MS.586         	4.855          	0.012
MS.587         	4.845          	0.008
MS.588         	4.835          	0.008
MS.589         	4.825          	0.01
MS.590         	4.818          	0.01
MS.591         	4.807          	0.008
MS.592         	4.797          	0.008
MS.593         	4.787          	0.012
MS.594         	4.777          	0.01
MS.595         	4.767          	0.01
MS.596         	4.76           	0.014
DERIVED EXCITABILITY VARIABLES
Program = QTracP 3/4/2020
Threshold method = 6 (optimised for CAP, using data for present condition only)
SR method = 1 (using actual data values)
6.                 	0.000               	Peak response\(mV)
9.                 	34.4                	Temperature ( C)
17.                	56                  	Age (years)
18.                	2                   	Sex (M=1, F=2)

EXTRA VARIABLES

MScPeak(mV) = 7.64
MScS5(mA) = 5.68
MScS50(mA) = 7.18
MScS95(mA) = 8.92
MScNSteps = 7
MScSteps(%) = 22.5
MScStepMax(%) = 5.2
MScD50 = 38
MScSlope = 5.78
MSFPeakAmp(mV) = 7.98
MSFNUnits = 103
MSFMeanUnitAmp(uV) = 77.5
MSFHuntTime(m) = 1.63
MSFError(%) = 8.92
MSFNLarge = 26.41
MSFMedianAmp(%) = 0.858
MSFMedianAmp(mV) = 0.0685
MSFHalfAmpAmp(%) = 1.18
MSFHalfAmpAmp(mV) = 0.0944
MSFLargestAmp(%) = 3.33
MSFLargestAmp(mV) = 0.266
MSFMeanRS(%) = 2
MSFOpts = 10106121
MScDuration(min) = 5.5
MSFTraces = 373
MSFSizeLimit(uV) = 20
MSFLimitType = 1
MSFSmallestAmp(uV) = 20.4

EXTRA WAVEFORMS


!MScan Model
!103
	1	5.11	0.35	2
	2	5.32	0.49	2
	3	5.4	0.36	2
	4	5.48	0.63	2
	5	5.55	0.43	2
	6	5.57	0.58	2
	7	5.64	1.19	2
	8	5.7	0.67	2
	9	5.72	0.33	2
	10	5.73	0.26	2
	11	5.74	0.34	2
	12	5.75	0.41	2
	13	5.76	0.4	2
	14	5.77	0.4	2
	15	5.85	1.51	2
	16	6.02	0.86	2
	17	6.04	0.4	2
	18	6.05	0.28	2
	19	6.06	0.26	2
	20	6.06	0.25	2
	21	6.07	0.25	2
	22	6.09	0.45	2
	23	6.1	0.31	2
	24	6.1	0.28	2
	25	6.11	0.27	2
	26	6.12	0.27	2
	27	6.14	0.64	2
	28	6.17	0.9	2
	29	6.2	0.94	2
	30	6.24	0.82	2
	31	6.36	3.14	2
	32	6.42	2.09	2
	33	6.49	2.22	2
	34	6.54	3.33	2
	35	6.57	1.46	2
	36	6.59	1.51	2
	37	6.62	1.45	2
	38	6.64	1.43	2
	39	6.65	0.94	2
	40	6.67	0.88	2
	41	6.68	0.81	2
	42	6.69	0.56	2
	43	6.7	0.51	2
	44	6.72	0.45	2
	45	6.73	0.31	2
	46	6.74	0.36	2
	47	6.75	0.31	2
	48	6.76	0.31	2
	49	6.8	0.95	2
	50	6.87	0.97	2
	51	6.96	2.11	2
	52	7.01	0.96	2
	53	7.06	0.83	2
	54	7.09	0.49	2
	55	7.13	1.17	2
	56	7.14	0.41	2
	57	7.16	0.83	2
	58	7.17	0.95	2
	59	7.18	1.05	2
	60	7.19	1.11	2
	61	7.2	1.18	2
	62	7.21	1.18	2
	63	7.22	1.22	2
	64	7.23	1.13	2
	65	7.24	1	2
	66	7.26	2.25	2
	67	7.37	2.45	2
	68	7.43	0.62	2
	69	7.53	0.42	2
	70	7.54	0.84	2
	71	7.56	1.1	2
	72	7.57	1.1	2
	73	7.58	0.94	2
	74	7.59	0.93	2
	75	7.6	0.93	2
	76	7.61	0.93	2
	77	7.63	0.7	2
	78	7.8	3.3	2
	79	7.86	0.89	2
	80	7.89	1.04	2
	81	7.9	0.57	2
	82	7.91	0.52	2
	83	7.93	0.52	2
	84	7.95	0.49	2
	85	7.98	0.67	2
	86	8	0.39	2
	87	8.03	0.5	2
	88	8.07	0.72	2
	89	8.15	1.56	2
	90	8.27	1.34	2
	91	8.32	0.64	2
	92	8.36	1.07	2
	93	8.46	1.57	2
	94	8.5	0.32	2
	95	8.58	2.27	2
	96	8.75	1.44	2
	97	8.9	1.85	2
	98	8.99	1.35	2
	99	9.05	1.42	2
	100	9.27	2.5	2
	101	9.32	1.14	2
	102	9.39	1.99	2
	103	9.48	1.57	2

