File:              	C:\Qtrac\Data\Daniel M Sørensen\MScan multicentre study\Data from centres\Edmonton\Processed data\MSCC00921B.QZD
Name:              	CA.EDM.NC.7.1
Protocol:          	MSCAN-R2
Date:              	21/9/20
Start time:        	15:22:19
Age:               	75
Sex:               	M
Temperature:       	31.4
S/R sites:         	ADM
NC/disease:        	NC
Operator:          	KJ
Comments:
M-SCAN DATA (Repeat 2/2, 13.8-3.3m)
Scanpts: 15, 22, 690, 697
Stim. (mA)     	Amp. (mV)
MS.1           	34.5           	8.852
MS.2           	34.5           	8.88
MS.3           	34.5           	8.842
MS.4           	34.5           	8.866
MS.5           	34.5           	8.891
MS.6           	34.5           	8.864
MS.7           	34.5           	8.876
MS.8           	34.5           	8.84
MS.9           	34.5           	8.888
MS.10          	34.5           	8.868
MS.11          	34.5           	8.846
MS.12          	34.5           	8.868
MS.13          	34.5           	8.878
MS.14          	34.5           	8.891
MS.15          	34.5           	8.872
MS.16          	34.5           	8.882
MS.17          	34.5           	8.884
MS.18          	34.5           	8.891
MS.19          	34.5           	8.884
MS.20          	34.5           	8.903
MS.21          	34.5           	8.884
MS.22          	34.5           	8.921
MS.23          	34.5           	8.891
MS.24          	34.43          	8.86
MS.25          	34.362         	8.878
MS.26          	34.292         	8.878
MS.27          	34.225         	8.903
MS.28          	34.157         	8.87
MS.29          	34.087         	8.886
MS.30          	34.02          	8.891
MS.31          	33.952         	8.886
MS.32          	33.885         	8.888
MS.33          	33.818         	8.884
MS.34          	33.75          	8.864
MS.35          	33.682         	8.886
MS.36          	33.615         	8.862
MS.37          	33.548         	8.856
MS.38          	33.48          	8.852
MS.39          	33.412         	8.86
MS.40          	33.347         	8.824
MS.41          	33.28          	8.842
MS.42          	33.212         	8.83
MS.43          	33.147         	8.836
MS.44          	33.08          	8.824
MS.45          	33.015         	8.856
MS.46          	32.95          	8.83
MS.47          	32.882         	8.848
MS.48          	32.818         	8.806
MS.49          	32.752         	8.848
MS.50          	32.688         	8.83
MS.51          	32.62          	8.86
MS.52          	32.555         	8.836
MS.53          	32.49          	8.792
MS.54          	32.425         	8.82
MS.55          	32.36          	8.784
MS.56          	32.298         	8.792
MS.57          	32.232         	8.82
MS.58          	32.167         	8.798
MS.59          	32.103         	8.778
MS.60          	32.04          	8.747
MS.61          	31.975         	8.79
MS.62          	31.912         	8.796
MS.63          	31.847         	8.772
MS.64          	31.785         	8.776
MS.65          	31.72          	8.727
MS.66          	31.657         	8.723
MS.67          	31.592         	8.754
MS.68          	31.53          	8.683
MS.69          	31.467         	8.721
MS.70          	31.405         	8.721
MS.71          	31.342         	8.715
MS.72          	31.28          	8.697
MS.73          	31.217         	8.611
MS.74          	31.155         	8.689
MS.75          	31.092         	8.683
MS.76          	31.03          	8.657
MS.77          	30.967         	8.669
MS.78          	30.907         	8.717
MS.79          	30.845         	8.675
MS.80          	30.782         	8.703
MS.81          	30.722         	8.697
MS.82          	30.66          	8.649
MS.83          	30.597         	8.651
MS.84          	30.537         	8.661
MS.85          	30.477         	8.647
MS.86          	30.415         	8.647
MS.87          	30.355         	8.617
MS.88          	30.295         	8.54
MS.89          	30.235         	8.671
MS.90          	30.172         	8.653
MS.91          	30.112         	8.55
MS.92          	30.052         	8.516
MS.93          	29.992         	8.504
MS.94          	29.932         	8.635
MS.95          	29.872         	8.534
MS.96          	29.812         	8.514
MS.97          	29.755         	8.51
MS.98          	29.695         	8.506
MS.99          	29.635         	8.482
MS.100         	29.575         	8.484
MS.101         	29.517         	8.441
MS.102         	29.457         	8.492
MS.103         	29.4           	8.464
MS.104         	29.34          	8.443
MS.105         	29.282         	8.468
MS.106         	29.222         	8.395
MS.107         	29.165         	8.474
MS.108         	29.108         	8.478
MS.109         	29.047         	8.333
MS.110         	28.99          	8.451
MS.111         	28.932         	8.373
MS.112         	28.875         	8.371
MS.113         	28.817         	8.359
MS.114         	28.76          	8.31
MS.115         	28.702         	8.327
MS.116         	28.645         	8.316
MS.117         	28.587         	8.345
MS.118         	28.53          	8.262
MS.119         	28.472         	8.381
MS.120         	28.415         	8.455
MS.121         	28.36          	8.224
MS.122         	28.302         	8.347
MS.123         	28.245         	8.325
MS.124         	28.19          	8.246
MS.125         	28.132         	8.333
MS.126         	28.077         	8.268
MS.127         	28.02          	8.256
MS.128         	27.965         	8.268
MS.129         	27.91          	8.26
MS.130         	27.852         	8.347
MS.131         	27.797         	8.278
MS.132         	27.743         	8.212
MS.133         	27.688         	8.214
MS.134         	27.632         	8.206
MS.135         	27.577         	8.268
MS.136         	27.522         	8.214
MS.137         	27.467         	8.304
MS.138         	27.412         	8.286
MS.139         	27.358         	8.228
MS.140         	27.302         	8.23
MS.141         	27.247         	8.226
MS.142         	27.192         	8.192
MS.143         	27.137         	8.184
MS.144         	27.085         	8.194
MS.145         	27.03          	8.145
MS.146         	26.977         	8.224
MS.147         	26.922         	8.188
MS.148         	26.868         	8.133
MS.149         	26.815         	8.093
MS.150         	26.762         	8.099
MS.151         	26.707         	8.159
MS.152         	26.655         	8.079
MS.153         	26.602         	7.946
MS.154         	26.547         	8.153
MS.155         	26.495         	7.912
MS.156         	26.442         	7.91
MS.157         	26.39          	8.053
MS.158         	26.337         	7.948
MS.159         	26.285         	7.932
MS.160         	26.233         	7.954
MS.161         	26.18          	7.924
MS.162         	26.127         	7.853
MS.163         	26.075         	7.932
MS.164         	26.022         	7.954
MS.165         	25.97          	7.91
MS.166         	25.917         	7.998
MS.167         	25.868         	7.946
MS.168         	25.815         	7.952
MS.169         	25.762         	7.881
MS.170         	25.712         	7.833
MS.171         	25.66          	7.64
MS.172         	25.61          	7.803
MS.173         	25.557         	7.809
MS.174         	25.507         	7.539
MS.175         	25.455         	7.571
MS.176         	25.405         	7.811
MS.177         	25.355         	7.767
MS.178         	25.305         	6.993
MS.179         	25.252         	6.989
MS.180         	25.202         	6.981
MS.181         	25.153         	7.241
MS.182         	25.102         	7.207
MS.183         	25.052         	6.675
MS.184         	25.002         	7.197
MS.185         	24.952         	7.628
MS.186         	24.903         	6.633
MS.187         	24.852         	6.602
MS.188         	24.802         	6.538
MS.189         	24.752         	6.774
MS.190         	24.705         	6.649
MS.191         	24.655         	6.621
MS.192         	24.605         	6.647
MS.193         	24.555         	6.629
MS.194         	24.507         	6.532
MS.195         	24.457         	6.629
MS.196         	24.41          	6.53
MS.197         	24.36          	6.548
MS.198         	24.312         	7.16
MS.199         	24.262         	6.546
MS.200         	24.215         	6.637
MS.201         	24.167         	6.582
MS.202         	24.118         	6.49
MS.203         	24.07          	6.502
MS.204         	24.022         	6.598
MS.205         	23.972         	6.546
MS.206         	23.925         	6.564
MS.207         	23.877         	6.528
MS.208         	23.83          	6.508
MS.209         	23.782         	6.405
MS.210         	23.735         	6.371
MS.211         	23.688         	6.417
MS.212         	23.64          	6.373
MS.213         	23.592         	6.202
MS.214         	23.545         	6.498
MS.215         	23.5           	6.484
MS.216         	23.452         	6.433
MS.217         	23.405         	6.266
MS.218         	23.358         	6.24
MS.219         	23.312         	6.216
MS.220         	23.265         	6.236
MS.221         	23.217         	6.302
MS.222         	23.172         	6.057
MS.223         	23.125         	6.115
MS.224         	23.08          	5.966
MS.225         	23.032         	5.865
MS.226         	22.987         	5.748
MS.227         	22.942         	5.75
MS.228         	22.895         	5.966
MS.229         	22.85          	5.823
MS.230         	22.805         	5.805
MS.231         	22.76          	5.674
MS.232         	22.712         	5.67
MS.233         	22.667         	5.732
MS.234         	22.622         	5.531
MS.235         	22.577         	5.374
MS.236         	22.532         	5.406
MS.237         	22.487         	5.277
MS.238         	22.442         	4.913
MS.239         	22.397         	4.892
MS.240         	22.352         	5.114
MS.241         	22.307         	5.231
MS.242         	22.262         	5.029
MS.243         	22.22          	4.931
MS.244         	22.175         	4.79
MS.245         	22.13          	4.705
MS.246         	22.087         	5.058
MS.247         	22.042         	4.842
MS.248         	21.997         	4.683
MS.249         	21.955         	5.025
MS.250         	21.91          	4.719
MS.251         	21.868         	4.8
MS.252         	21.823         	4.685
MS.253         	21.78          	4.643
MS.254         	21.735         	4.643
MS.255         	21.692         	4.594
MS.256         	21.65          	4.622
MS.257         	21.605         	4.542
MS.258         	21.562         	4.498
MS.259         	21.52          	4.369
MS.260         	21.477         	4.536
MS.261         	21.432         	4.663
MS.262         	21.39          	4.385
MS.263         	21.347         	4.339
MS.264         	21.305         	4.429
MS.265         	21.262         	4.409
MS.266         	21.22          	4.336
MS.267         	21.177         	4.04
MS.268         	21.135         	4.218
MS.269         	21.092         	4.01
MS.270         	21.05          	3.968
MS.271         	21.01          	3.809
MS.272         	20.967         	3.819
MS.273         	20.925         	3.883
MS.274         	20.882         	3.261
MS.275         	20.842         	3.583
MS.276         	20.8           	3.148
MS.277         	20.757         	3.158
MS.278         	20.717         	3.241
MS.279         	20.675         	2.947
MS.280         	20.635         	2.983
MS.281         	20.592         	2.858
MS.282         	20.552         	2.981
MS.283         	20.51          	2.949
MS.284         	20.47          	2.908
MS.285         	20.43          	3.108
MS.286         	20.387         	2.87
MS.287         	20.347         	2.902
MS.288         	20.307         	2.83
MS.289         	20.267         	2.713
MS.290         	20.225         	2.806
MS.291         	20.185         	2.721
MS.292         	20.145         	2.655
MS.293         	20.105         	2.661
MS.294         	20.065         	2.659
MS.295         	20.025         	2.683
MS.296         	19.985         	2.584
MS.297         	19.945         	2.633
MS.298         	19.905         	2.576
MS.299         	19.865         	2.492
MS.300         	19.825         	2.496
MS.301         	19.785         	2.487
MS.302         	19.745         	2.506
MS.303         	19.708         	2.278
MS.304         	19.667         	2.389
MS.305         	19.627         	2.328
MS.306         	19.59          	2.381
MS.307         	19.55          	2.322
MS.308         	19.51          	2.308
MS.309         	19.472         	2.201
MS.310         	19.432         	2.23
MS.311         	19.395         	2.034
MS.312         	19.355         	2.169
MS.313         	19.317         	2.042
MS.314         	19.278         	2.089
MS.315         	19.24          	2.075
MS.316         	19.2           	2.036
MS.317         	19.163         	2.081
MS.318         	19.125         	2.034
MS.319         	19.085         	1.978
MS.320         	19.047         	1.932
MS.321         	19.01          	1.984
MS.322         	18.972         	1.724
MS.323         	18.935         	1.944
MS.324         	18.895         	2.004
MS.325         	18.858         	1.565
MS.326         	18.82          	1.722
MS.327         	18.782         	1.738
MS.328         	18.745         	1.553
MS.329         	18.708         	1.72
MS.330         	18.67          	1.736
MS.331         	18.632         	1.438
MS.332         	18.595         	1.519
MS.333         	18.56          	1.623
MS.334         	18.522         	1.311
MS.335         	18.485         	1.327
MS.336         	18.448         	1.654
MS.337         	18.41          	1.253
MS.338         	18.375         	1.358
MS.339         	18.337         	1.428
MS.340         	18.3           	1.285
MS.341         	18.265         	1.263
MS.342         	18.227         	1.335
MS.343         	18.192         	1.64
MS.344         	18.155         	1.358
MS.345         	18.12          	1.366
MS.346         	18.083         	1.349
MS.347         	18.047         	1.243
MS.348         	18.01          	1.271
MS.349         	17.975         	1.259
MS.350         	17.938         	1.368
MS.351         	17.903         	1.345
MS.352         	17.868         	1.253
MS.353         	17.833         	1.331
MS.354         	17.795         	1.418
MS.355         	17.76          	1.404
MS.356         	17.725         	1.293
MS.357         	17.69          	1.148
MS.358         	17.655         	1.249
MS.359         	17.618         	1.172
MS.360         	17.583         	1.255
MS.361         	17.547         	1.158
MS.362         	17.512         	1.231
MS.363         	17.477         	1.118
MS.364         	17.442         	0.935
MS.365         	17.407         	1.1
MS.366         	17.372         	1.035
MS.367         	17.34          	0.951
MS.368         	17.305         	1.068
MS.369         	17.27          	0.858
MS.370         	17.235         	1.041
MS.371         	17.2           	0.86
MS.372         	17.167         	0.844
MS.373         	17.132         	0.922
MS.374         	17.097         	0.788
MS.375         	17.065         	0.814
MS.376         	17.03          	0.864
MS.377         	16.995         	0.842
MS.378         	16.962         	0.804
MS.379         	16.927         	0.824
MS.380         	16.895         	0.81
MS.381         	16.86          	0.781
MS.382         	16.827         	0.806
MS.383         	16.792         	0.854
MS.384         	16.76          	0.874
MS.385         	16.725         	0.786
MS.386         	16.692         	0.812
MS.387         	16.66          	0.792
MS.388         	16.625         	0.806
MS.389         	16.592         	0.822
MS.390         	16.56          	0.796
MS.391         	16.528         	0.796
MS.392         	16.493         	0.761
MS.393         	16.46          	0.765
MS.394         	16.427         	0.767
MS.395         	16.395         	0.751
MS.396         	16.362         	0.753
MS.397         	16.33          	0.781
MS.398         	16.297         	0.735
MS.399         	16.265         	0.741
MS.400         	16.233         	0.749
MS.401         	16.2           	0.751
MS.402         	16.167         	0.717
MS.403         	16.135         	0.767
MS.404         	16.102         	0.745
MS.405         	16.07          	0.745
MS.406         	16.038         	0.753
MS.407         	16.005         	0.719
MS.408         	15.975         	0.755
MS.409         	15.943         	0.725
MS.410         	15.91          	0.733
MS.411         	15.877         	0.753
MS.412         	15.847         	0.755
MS.413         	15.815         	0.757
MS.414         	15.782         	0.755
MS.415         	15.752         	0.749
MS.416         	15.72          	0.739
MS.417         	15.69          	0.725
MS.418         	15.657         	0.745
MS.419         	15.627         	0.741
MS.420         	15.595         	0.723
MS.421         	15.565         	0.723
MS.422         	15.532         	0.729
MS.423         	15.502         	0.739
MS.424         	15.47          	0.713
MS.425         	15.44          	0.715
MS.426         	15.41          	0.731
MS.427         	15.377         	0.729
MS.428         	15.347         	0.745
MS.429         	15.318         	0.733
MS.430         	15.287         	0.715
MS.431         	15.255         	0.719
MS.432         	15.225         	0.671
MS.433         	15.195         	0.727
MS.434         	15.165         	0.689
MS.435         	15.135         	0.735
MS.436         	15.105         	0.733
MS.437         	15.075         	0.693
MS.438         	15.042         	0.729
MS.439         	15.012         	0.727
MS.440         	14.983         	0.729
MS.441         	14.952         	0.628
MS.442         	14.925         	0.62
MS.443         	14.895         	0.687
MS.444         	14.865         	0.725
MS.445         	14.835         	0.681
MS.446         	14.805         	0.685
MS.447         	14.775         	0.669
MS.448         	14.745         	0.614
MS.449         	14.717         	0.63
MS.450         	14.688         	0.616
MS.451         	14.657         	0.675
MS.452         	14.627         	0.62
MS.453         	14.6           	0.675
MS.454         	14.57          	0.671
MS.455         	14.54          	0.62
MS.456         	14.512         	0.683
MS.457         	14.483         	0.622
MS.458         	14.455         	0.63
MS.459         	14.425         	0.63
MS.460         	14.395         	0.679
MS.461         	14.367         	0.628
MS.462         	14.337         	0.624
MS.463         	14.31          	0.634
MS.464         	14.282         	0.632
MS.465         	14.252         	0.626
MS.466         	14.225         	0.626
MS.467         	14.195         	0.626
MS.468         	14.167         	0.632
MS.469         	14.14          	0.628
MS.470         	14.11          	0.626
MS.471         	14.082         	0.628
MS.472         	14.055         	0.624
MS.473         	14.028         	0.628
MS.474         	13.997         	0.628
MS.475         	13.97          	0.628
MS.476         	13.943         	0.628
MS.477         	13.915         	0.63
MS.478         	13.887         	0.63
MS.479         	13.86          	0.634
MS.480         	13.832         	0.628
MS.481         	13.805         	0.632
MS.482         	13.778         	0.626
MS.483         	13.75          	0.632
MS.484         	13.722         	0.626
MS.485         	13.695         	0.626
MS.486         	13.667         	0.616
MS.487         	13.64          	0.616
MS.488         	13.612         	0.626
MS.489         	13.585         	0.628
MS.490         	13.557         	0.612
MS.491         	13.53          	0.628
MS.492         	13.502         	0.514
MS.493         	13.477         	0.614
MS.494         	13.45          	0.614
MS.495         	13.422         	0.616
MS.496         	13.395         	0.493
MS.497         	13.37          	0.51
MS.498         	13.342         	0.518
MS.499         	13.315         	0.514
MS.500         	13.29          	0.616
MS.501         	13.262         	0.522
MS.502         	13.237         	0.399
MS.503         	13.21          	0.514
MS.504         	13.182         	0.512
MS.505         	13.157         	0.389
MS.506         	13.13          	0.516
MS.507         	13.105         	0.508
MS.508         	13.077         	0.387
MS.509         	13.052         	0.389
MS.510         	13.025         	0.391
MS.511         	13             	0.493
MS.512         	12.975         	0.375
MS.513         	12.947         	0.51
MS.514         	12.922         	0.385
MS.515         	12.898         	0.326
MS.516         	12.87          	0.371
MS.517         	12.845         	0.371
MS.518         	12.82          	0.383
MS.519         	12.795         	0.373
MS.520         	12.767         	0.377
MS.521         	12.742         	0.371
MS.522         	12.717         	0.371
MS.523         	12.693         	0.348
MS.524         	12.667         	0.3
MS.525         	12.64          	0.31
MS.526         	12.615         	0.3
MS.527         	12.59          	0.302
MS.528         	12.565         	0.34
MS.529         	12.54          	0.302
MS.530         	12.515         	0.304
MS.531         	12.49          	0.3
MS.532         	12.465         	0.306
MS.533         	12.44          	0.302
MS.534         	12.415         	0.302
MS.535         	12.39          	0.332
MS.536         	12.365         	0.304
MS.537         	12.342         	0.306
MS.538         	12.318         	0.302
MS.539         	12.292         	0.332
MS.540         	12.267         	0.304
MS.541         	12.242         	0.3
MS.542         	12.217         	0.31
MS.543         	12.195         	0.304
MS.544         	12.17          	0.308
MS.545         	12.145         	0.302
MS.546         	12.12          	0.304
MS.547         	12.097         	0.181
MS.548         	12.072         	0.183
MS.549         	12.047         	0.304
MS.550         	12.025         	0.304
MS.551         	12             	0.175
MS.552         	11.977         	0.181
MS.553         	11.952         	0.306
MS.554         	11.93          	0.31
MS.555         	11.905         	0.304
MS.556         	11.88          	0.179
MS.557         	11.858         	0.304
MS.558         	11.835         	0.177
MS.559         	11.81          	0.187
MS.560         	11.787         	0.183
MS.561         	11.762         	0.183
MS.562         	11.74          	0.183
MS.563         	11.715         	0.31
MS.564         	11.693         	0.179
MS.565         	11.67          	0.179
MS.566         	11.645         	0.119
MS.567         	11.622         	0.183
MS.568         	11.6           	0.119
MS.569         	11.577         	0.121
MS.570         	11.552         	0.119
MS.571         	11.53          	0.181
MS.572         	11.507         	0.179
MS.573         	11.485         	0.117
MS.574         	11.46          	0.179
MS.575         	11.438         	0.119
MS.576         	11.415         	0.177
MS.577         	11.392         	0.117
MS.578         	11.37          	0.121
MS.579         	11.347         	0.183
MS.580         	11.325         	0.123
MS.581         	11.302         	0.119
MS.582         	11.28          	0.119
MS.583         	11.257         	0.119
MS.584         	11.235         	0.121
MS.585         	11.212         	0.121
MS.586         	11.19          	0.121
MS.587         	11.167         	0.121
MS.588         	11.145         	0.125
MS.589         	11.122         	0.119
MS.590         	11.1           	0.123
MS.591         	11.077         	0.117
MS.592         	11.055         	0.121
MS.593         	11.035         	0.121
MS.594         	11.012         	0.117
MS.595         	10.99          	0.079
MS.596         	10.967         	0.073
MS.597         	10.945         	0.113
MS.598         	10.925         	0.075
MS.599         	10.903         	0.073
MS.600         	10.88          	0.121
MS.601         	10.858         	0.119
MS.602         	10.837         	0.115
MS.603         	10.815         	0.073
MS.604         	10.792         	0.073
MS.605         	10.773         	0.075
MS.606         	10.75          	0.073
MS.607         	10.73          	0.073
MS.608         	10.707         	0.07
MS.609         	10.688         	0.075
MS.610         	10.665         	0.066
MS.611         	10.642         	0.077
MS.612         	10.622         	0.07
MS.613         	10.6           	0.073
MS.614         	10.58          	0.064
MS.615         	10.56          	0.115
MS.616         	10.537         	0.068
MS.617         	10.517         	0.077
MS.618         	10.495         	0.075
MS.619         	10.475         	0.075
MS.620         	10.452         	0.07
MS.621         	10.432         	0.077
MS.622         	10.412         	0.068
MS.623         	10.39          	0.066
MS.624         	10.37          	0.075
MS.625         	10.35          	0.077
MS.626         	10.33          	0.064
MS.627         	10.307         	0.066
MS.628         	10.287         	0.066
MS.629         	10.267         	0.066
MS.630         	10.247         	0.07
MS.631         	10.227         	0.064
MS.632         	10.205         	0.066
MS.633         	10.185         	0.07
MS.634         	10.165         	0.066
MS.635         	10.145         	0.066
MS.636         	10.125         	0.068
MS.637         	10.105         	0.068
MS.638         	10.085         	0.068
MS.639         	10.065         	0.062
MS.640         	10.045         	0.068
MS.641         	10.025         	0.068
MS.642         	10.002         	0.07
MS.643         	9.985          	0.068
MS.644         	9.965          	0.064
MS.645         	9.945          	0.068
MS.646         	9.925          	0.038
MS.647         	9.905          	0.073
MS.648         	9.885          	0.07
MS.649         	9.865          	0.036
MS.650         	9.845          	0.066
MS.651         	9.825          	0.066
MS.652         	9.805          	0.07
MS.653         	9.785          	0.07
MS.654         	9.767          	0.07
MS.655         	9.747          	0.032
MS.656         	9.727          	0.036
MS.657         	9.707          	0.024
MS.658         	9.688          	0.073
MS.659         	9.67           	0.032
MS.660         	9.65           	0.036
MS.661         	9.63           	0.038
MS.662         	9.613          	0.073
MS.663         	9.592          	0.03
MS.664         	9.573          	0.032
MS.665         	9.555          	0.022
MS.666         	9.535          	0.022
MS.667         	9.515          	0.03
MS.668         	9.497          	0.022
MS.669         	9.477          	0.018
MS.670         	9.46           	0.022
MS.671         	9.44           	0.024
MS.672         	9.42           	0.024
MS.673         	9.403          	0.024
MS.674         	9.382          	0.02
MS.675         	9.365          	0.022
MS.676         	9.345          	0.026
MS.677         	9.327          	0.022
MS.678         	9.31           	0.026
MS.679         	9.29           	0.022
MS.680         	9.273          	0.032
MS.681         	9.252          	0.028
MS.682         	9.235          	0.024
MS.683         	9.215          	0.026
MS.684         	9.198          	0.022
MS.685         	9.18           	0.016
MS.686         	9.16           	0.018
MS.687         	9.142          	0.024
MS.688         	9.125          	0.024
MS.689         	9.105          	0.02
MS.690         	9.087          	0.016
MS.691         	9.07           	0.026
MS.692         	9.052          	0.024
MS.693         	9.033          	0.02
MS.694         	9.015          	0.028
MS.695         	8.997          	0.018
MS.696         	8.98           	0.024
MS.697         	8.962          	0.022
MS.698         	8.945          	0.016
MS.699         	8.925          	0.02
MS.700         	8.908          	0.024
MS.701         	8.89           	0.022
MS.702         	8.872          	0.024
MS.703         	8.855          	0.022
MS.704         	8.837          	0.024
MS.705         	8.82           	0.02
MS.706         	8.802          	0.024
MS.707         	8.785          	0.022
MS.708         	8.767          	0.016
MS.709         	8.75           	0.02
MS.710         	8.733          	0.022
MS.711         	8.715          	0.02
MS.712         	8.698          	0.022
MS.713         	8.68           	0.026
MS.714         	8.662          	0.024
MS.715         	8.645          	0.022
MS.716         	8.627          	0.018
MS.717         	8.61           	0.022
MS.718         	8.592          	0.022
MS.719         	8.575          	0.028
MS.720         	8.56           	0.02
MS.721         	8.542          	0.022
MS.722         	8.525          	0.022
MS.723         	8.507          	0.018
MS.724         	8.49           	0.02
MS.725         	8.472          	0.022
MS.726         	8.457          	0.02
MS.727         	8.44           	0.02
MS.728         	8.422          	0.026
MS.729         	8.405          	0.022
MS.730         	8.39           	0.018
MS.731         	8.372          	0.02
MS.732         	8.355          	0.02
MS.733         	8.34           	0.02
MS.734         	8.323          	0.026
MS.735         	8.305          	0.024
MS.736         	8.29           	0.026
MS.737         	8.273          	0.022
MS.738         	8.255          	0.018
MS.739         	8.24           	0.024
MS.740         	8.222          	0.024
MS.741         	8.207          	0.022
MS.742         	8.19           	0.026
MS.743         	8.175          	0.024
MS.744         	8.158          	0.018
MS.745         	8.142          	0.022
MS.746         	8.125          	0.022
MS.747         	8.11           	0.024
MS.748         	8.092          	0.024
MS.749         	8.077          	0.024
MS.750         	8.06           	0.024
MS.751         	8.045          	0.024
MS.752         	8.028          	0.024
MS.753         	8.012          	0.022
MS.754         	7.995          	0.026
MS.755         	7.98           	0.022
MS.756         	7.965          	0.022
MS.757         	7.947          	0.022
MS.758         	7.932          	0.026
MS.759         	7.918          	0.024
MS.760         	7.9            	0.028
MS.761         	7.885          	0.022
MS.762         	7.87           	0.024
MS.763         	7.852          	0.022
MS.764         	7.837          	0.02
MS.765         	7.822          	0.026
MS.766         	7.807          	0.024
MS.767         	7.79           	0.026
MS.768         	7.775          	0.02
MS.769         	7.76           	0.022
MS.770         	7.745          	0.024
MS.771         	7.73           	0.022
MS.772         	7.712          	0.018
MS.773         	7.697          	0.024
MS.774         	7.682          	0.026
MS.775         	7.668          	0.022
MS.776         	7.652          	0.024
MS.777         	7.637          	0.024
MS.778         	7.622          	0.018
MS.779         	7.605          	0.022
MS.780         	7.59           	0.022
MS.781         	7.575          	0.024
MS.782         	7.56           	0.022
MS.783         	7.545          	0.026
MS.784         	7.53           	0.024
MS.785         	7.515          	0.022
MS.786         	7.5            	0.022
MS.787         	7.485          	0.018
MS.788         	7.47           	0.026
MS.789         	7.455          	0.022
MS.790         	7.44           	0.022
MS.791         	7.425          	0.022
MS.792         	7.41           	0.024
MS.793         	7.395          	0.024
MS.794         	7.382          	0.016
MS.795         	7.367          	0.024
MS.796         	7.352          	0.026
MS.797         	7.337          	0.024
MS.798         	7.322          	0.024
MS.799         	7.307          	0.022
MS.800         	7.293          	0.024
MS.801         	7.28           	0.024
MS.802         	7.265          	0.022
MS.803         	7.25           	0.018
MS.804         	7.235          	0.02
MS.805         	7.22           	0.008
MS.806         	7.207          	0.004
MS.807         	7.192          	0.002
MS.808         	7.177          	0.004
MS.809         	7.162          	0.006
MS.810         	7.15           	0.004
MS.811         	7.135          	0.004
MS.812         	7.12           	0.006
MS.813         	7.105          	0.008
MS.814         	7.092          	0.004
MS.815         	7.077          	0.006
MS.816         	7.062          	0.006
MS.817         	7.05           	0.006
MS.818         	7.035          	0.01
MS.819         	7.023          	0.004
MS.820         	7.007          	0.002
MS.821         	6.992          	0.004
MS.822         	6.98           	0.004
MS.823         	6.965          	0.002
MS.824         	6.952          	0.01
MS.825         	6.938          	0.008
MS.826         	6.925          	0.004
MS.827         	6.91           	0.008
MS.828         	6.895          	0.002
MS.829         	6.882          	0.002
MS.830         	6.867          	0.008
MS.831         	6.855          	0.008
MS.832         	6.84           	0.004
MS.833         	6.827          	0.006
MS.834         	6.815          	0.002
MS.835         	6.8            	0.01
MS.836         	6.787          	0.006
MS.837         	6.773          	0.004
DERIVED EXCITABILITY VARIABLES
Program = QTracP 3/4/2020
Threshold method = 6 (optimised for CAP, using data for present condition only)
SR method = 1 (using actual data values)
6.                 	0.000               	Peak response\(mV)
9.                 	31.4                	Temperature ( C)
17.                	75                  	Age (years)
18.                	1                   	Sex (M=1, F=2)

EXTRA VARIABLES

MScPeak(mV) = 8.87
MScS5(mA) = 13.09
MScS50(mA) = 21.48
MScS95(mA) = 28.91
MScNSteps = 3
MScSteps(%) = 7.9
MScStepMax(%) = 3.4
MScD50 = 40
MScSlope = 4.17
MSFPeakAmp(mV) = 8.87
MSFNUnits = 135
MSFMeanUnitAmp(uV) = 65.7
MSFHuntTime(m) = 4.53
MSFError(%) = 3.59
MSFNLarge = 37.65
MSFMedianAmp(%) = 0.645
MSFMedianAmp(mV) = 0.0572
MSFHalfAmpAmp(%) = 0.812
MSFHalfAmpAmp(mV) = 0.072
MSFLargestAmp(%) = 6.14
MSFLargestAmp(mV) = 0.545
MSFMeanRS(%) = 2
MSFOpts = 10106121
MSFTraces = 683
MSFSizeLimit(uV) = 22.2
MSFLimitType = 1
MSFSmallestAmp(uV) = 23.5

EXTRA WAVEFORMS


!MScan Model
!135
	1	9.81	0.38	2
	2	10.75	0.31	2
	3	11.08	0.34	2
	4	11.62	0.61	2
	5	11.95	1	2
	6	12.48	0.48	2
	7	12.48	0.32	2
	8	12.71	0.45	2
	9	12.94	0.66	2
	10	13.17	0.82	2
	11	13.34	0.62	2
	12	13.52	0.68	2
	13	14.27	0.43	2
	14	14.94	0.61	2
	15	15.63	0.55	2
	16	16.41	0.4	2
	17	16.72	0.39	2
	18	17.07	0.78	2
	19	17.15	0.32	2
	20	17.21	0.33	2
	21	17.27	0.47	2
	22	17.34	0.47	2
	23	17.4	0.46	2
	24	17.47	0.65	2
	25	17.58	0.65	2
	26	17.74	1.23	2
	27	18.43	2.23	2
	28	18.59	1.15	2
	29	18.7	0.8	2
	30	18.79	0.93	2
	31	18.87	0.83	2
	32	18.95	0.78	2
	33	19.03	0.59	2
	34	19.12	0.69	2
	35	19.17	0.43	2
	36	19.22	0.55	2
	37	19.26	0.44	2
	38	19.3	0.31	2
	39	19.34	0.3	2
	40	19.38	0.29	2
	41	19.41	0.28	2
	42	19.45	0.29	2
	43	19.49	0.3	2
	44	19.55	0.49	2
	45	19.6	0.38	2
	46	19.65	0.46	2
	47	19.68	0.27	2
	48	19.72	0.28	2
	49	19.75	0.28	2
	50	19.78	0.3	2
	51	19.84	0.48	2
	52	19.9	0.46	2
	53	19.94	0.27	2
	54	19.98	0.31	2
	55	20.02	0.36	2
	56	20.06	0.32	2
	57	20.19	1.08	2
	58	20.35	1.02	2
	59	20.48	1.3	2
	60	20.53	0.46	2
	61	20.58	0.69	2
	62	20.63	1.22	2
	63	20.68	0.81	2
	64	20.72	1.05	2
	65	20.75	0.29	2
	66	20.81	0.7	2
	67	20.84	0.53	2
	68	20.87	0.71	2
	69	20.9	0.78	2
	70	20.93	0.84	2
	71	20.97	0.84	2
	72	21	0.64	2
	73	21.04	0.51	2
	74	21.07	0.65	2
	75	21.11	0.73	2
	76	21.14	0.77	2
	77	21.2	1.32	2
	78	21.26	1.06	2
	79	21.34	0.89	2
	80	21.44	1.37	2
	81	21.55	1.01	2
	82	21.71	1.13	2
	83	21.88	1.23	2
	84	22.04	1.2	2
	85	22.18	1.38	2
	86	22.23	0.54	2
	87	22.29	0.54	2
	88	22.34	0.74	2
	89	22.4	0.83	2
	90	22.46	0.86	2
	91	22.51	0.75	2
	92	22.57	0.55	2
	93	22.62	0.8	2
	94	22.67	0.71	2
	95	22.72	0.71	2
	96	22.77	0.74	2
	97	22.82	0.7	2
	98	22.87	0.68	2
	99	22.93	0.74	2
	100	22.99	1	2
	101	23.05	0.8	2
	102	23.13	0.85	2
	103	23.22	0.73	2
	104	23.31	0.52	2
	105	23.43	1.05	2
	106	23.6	1.29	2
	107	23.88	1.15	2
	108	24.83	6.14	2
	109	25.07	2.06	2
	110	25.18	2.26	2
	111	25.32	1.9	2
	112	25.45	1.39	2
	113	25.64	1.31	2
	114	26.38	1.23	2
	115	26.54	0.48	2
	116	26.68	0.39	2
	117	26.85	0.58	2
	118	27.06	0.64	2
	119	27.37	0.53	2
	120	28.16	0.79	2
	121	28.74	0.79	2
	122	28.96	0.27	2
	123	29.12	0.31	2
	124	29.27	0.26	2
	125	29.47	0.37	2
	126	29.66	0.36	2
	127	29.82	0.29	2
	128	29.99	0.34	2
	129	30.16	0.32	2
	130	30.53	0.61	2
	131	31.23	0.76	2
	132	31.8	0.48	2
	133	32.17	0.45	2
	134	32.58	0.33	2
	135	33.78	0.57	2

