File:              	C:\Qtrac\Data\Daniel M Sørensen\MScan multicentre study\Data from centres\Edmonton\MSCC00211A.QZD
Name:              	CA.EDM.NC.4.1
Protocol:          	MSCAN-R2
Date:              	11/2/20
Start time:        	13:23:59
Age:               	59
Sex:               	F
Temperature:       	33.8
S/R sites:         	Median Wr-APB
NC/disease:        	NC
Operator:          	KJ
Comments:
M-SCAN DATA (10.3-1.7m)
Scanpts: 26, 32, 648, 673
Stim. (mA)     	Amp. (mV)
MS.1           	22             	10.125
MS.2           	22             	10.121
MS.3           	22             	10.123
MS.4           	22             	10.093
MS.5           	22             	10.073
MS.6           	22             	10.083
MS.7           	22             	10.101
MS.8           	22             	10.087
MS.9           	22             	10.083
MS.10          	22             	10.109
MS.11          	22             	10.107
MS.12          	22             	10.099
MS.13          	22             	10.115
MS.14          	22             	10.133
MS.15          	22             	10.133
MS.16          	22             	10.151
MS.17          	22             	10.172
MS.18          	22             	10.141
MS.19          	22             	10.169
MS.20          	22             	10.167
MS.21          	22             	10.165
MS.22          	22             	10.186
MS.23          	21.913         	10.212
MS.24          	21.868         	10.184
MS.25          	21.825         	10.194
MS.26          	21.78          	10.182
MS.27          	21.737         	10.196
MS.28          	21.695         	10.206
MS.29          	21.65          	10.169
MS.30          	21.608         	10.196
MS.31          	21.565         	10.153
MS.32          	21.52          	10.198
MS.33          	21.477         	10.163
MS.34          	21.435         	10.155
MS.35          	21.392         	10.155
MS.36          	21.35          	10.123
MS.37          	21.307         	10.147
MS.38          	21.265         	10.194
MS.39          	21.222         	10.117
MS.40          	21.18          	10.165
MS.41          	21.137         	10.226
MS.42          	21.095         	10.137
MS.43          	21.052         	10.097
MS.44          	21.01          	10.135
MS.45          	20.97          	10.147
MS.46          	20.927         	10.101
MS.47          	20.885         	10.165
MS.48          	20.842         	10.101
MS.49          	20.802         	10.2
MS.50          	20.76          	9.781
MS.51          	20.717         	10.123
MS.52          	20.677         	10.159
MS.53          	20.635         	10.145
MS.54          	20.595         	10.059
MS.55          	20.552         	9.803
MS.56          	20.512         	9.803
MS.57          	20.472         	10.063
MS.58          	20.43          	9.807
MS.59          	20.39          	9.813
MS.60          	20.35          	9.676
MS.61          	20.307         	9.767
MS.62          	20.267         	9.869
MS.63          	20.227         	9.791
MS.64          	20.188         	9.797
MS.65          	20.147         	9.761
MS.66          	20.108         	9.779
MS.67          	20.065         	9.738
MS.68          	20.025         	9.783
MS.69          	19.985         	9.684
MS.70          	19.945         	9.328
MS.71          	19.907         	9.777
MS.72          	19.868         	9.461
MS.73          	19.827         	9.98
MS.74          	19.788         	9.648
MS.75          	19.747         	9.398
MS.76          	19.708         	9.376
MS.77          	19.67          	9.618
MS.78          	19.63          	9.646
MS.79          	19.59          	9.354
MS.80          	19.55          	9.616
MS.81          	19.512         	9.61
MS.82          	19.472         	9.324
MS.83          	19.435         	9.348
MS.84          	19.395         	9.388
MS.85          	19.358         	9.356
MS.86          	19.317         	9.239
MS.87          	19.28          	9.318
MS.88          	19.24          	9.261
MS.89          	19.202         	8.961
MS.90          	19.165         	8.941
MS.91          	19.125         	8.81
MS.92          	19.087         	9.009
MS.93          	19.05          	8.752
MS.94          	19.012         	9.142
MS.95          	18.972         	9.205
MS.96          	18.935         	9.183
MS.97          	18.897         	8.568
MS.98          	18.86          	8.899
MS.99          	18.823         	8.923
MS.100         	18.785         	8.651
MS.101         	18.747         	8.437
MS.102         	18.71          	8.772
MS.103         	18.672         	8.449
MS.104         	18.635         	8.488
MS.105         	18.597         	8.357
MS.106         	18.56          	8.556
MS.107         	18.522         	8.248
MS.108         	18.487         	8.325
MS.109         	18.45          	8.224
MS.110         	18.413         	8.21
MS.111         	18.375         	8.107
MS.112         	18.34          	8.139
MS.113         	18.302         	7.883
MS.114         	18.265         	8.101
MS.115         	18.23          	8.085
MS.116         	18.192         	7.998
MS.117         	18.157         	8.016
MS.118         	18.12          	7.982
MS.119         	18.085         	7.96
MS.120         	18.047         	7.867
MS.121         	18.012         	8.024
MS.122         	17.975         	7.799
MS.123         	17.94          	7.483
MS.124         	17.905         	7.779
MS.125         	17.868         	7.34
MS.126         	17.833         	7.38
MS.127         	17.797         	6.896
MS.128         	17.762         	7.223
MS.129         	17.725         	7.323
MS.130         	17.69          	7.336
MS.131         	17.655         	7.162
MS.132         	17.62          	7.293
MS.133         	17.585         	6.915
MS.134         	17.55          	6.701
MS.135         	17.515         	6.892
MS.136         	17.48          	7.096
MS.137         	17.445         	6.484
MS.138         	17.41          	6.425
MS.139         	17.375         	6.449
MS.140         	17.34          	6.034
MS.141         	17.305         	6.083
MS.142         	17.27          	5.996
MS.143         	17.237         	5.62
MS.144         	17.202         	6.085
MS.145         	17.167         	5.591
MS.146         	17.132         	5.954
MS.147         	17.1           	5.545
MS.148         	17.065         	5.468
MS.149         	17.03          	5.333
MS.150         	16.997         	5.18
MS.151         	16.962         	5.049
MS.152         	16.93          	5.539
MS.153         	16.895         	5.273
MS.154         	16.862         	5.47
MS.155         	16.827         	5.426
MS.156         	16.795         	4.858
MS.157         	16.76          	5.249
MS.158         	16.727         	4.768
MS.159         	16.695         	4.753
MS.160         	16.66          	4.808
MS.161         	16.628         	4.953
MS.162         	16.595         	5.045
MS.163         	16.56          	4.772
MS.164         	16.528         	4.608
MS.165         	16.495         	4.935
MS.166         	16.462         	4.316
MS.167         	16.43          	4.502
MS.168         	16.395         	4.397
MS.169         	16.362         	4.393
MS.170         	16.33          	4.588
MS.171         	16.297         	4.574
MS.172         	16.265         	4.383
MS.173         	16.233         	4.753
MS.174         	16.2           	3.994
MS.175         	16.167         	4.127
MS.176         	16.135         	4.079
MS.177         	16.102         	3.96
MS.178         	16.073         	4.097
MS.179         	16.04          	3.958
MS.180         	16.007         	3.99
MS.181         	15.975         	4.036
MS.182         	15.943         	3.787
MS.183         	15.912         	3.97
MS.184         	15.88          	4.016
MS.185         	15.847         	3.926
MS.186         	15.818         	3.579
MS.187         	15.785         	3.567
MS.188         	15.752         	3.617
MS.189         	15.722         	3.563
MS.190         	15.69          	3.394
MS.191         	15.66          	3.509
MS.192         	15.627         	3.428
MS.193         	15.597         	3.458
MS.194         	15.565         	3.031
MS.195         	15.535         	2.711
MS.196         	15.502         	3.358
MS.197         	15.472         	2.842
MS.198         	15.44          	2.862
MS.199         	15.41          	1.867
MS.200         	15.38          	2.153
MS.201         	15.35          	2.594
MS.202         	15.318         	2.062
MS.203         	15.287         	2.723
MS.204         	15.257         	1.986
MS.205         	15.227         	1.809
MS.206         	15.195         	1.587
MS.207         	15.165         	1.505
MS.208         	15.135         	1.448
MS.209         	15.105         	1.551
MS.210         	15.075         	2.218
MS.211         	15.045         	1.613
MS.212         	15.015         	1.321
MS.213         	14.985         	1.563
MS.214         	14.955         	1.426
MS.215         	14.925         	1.416
MS.216         	14.895         	1.39
MS.217         	14.865         	1.241
MS.218         	14.835         	1.297
MS.219         	14.805         	1.14
MS.220         	14.777         	1.114
MS.221         	14.747         	1.108
MS.222         	14.717         	1.255
MS.223         	14.688         	1.208
MS.224         	14.66          	1.162
MS.225         	14.63          	1.281
MS.226         	14.6           	1.178
MS.227         	14.57          	1.237
MS.228         	14.542         	1.251
MS.229         	14.512         	1.031
MS.230         	14.485         	1.227
MS.231         	14.455         	1.053
MS.232         	14.425         	1.144
MS.233         	14.398         	1.023
MS.234         	14.367         	1.001
MS.235         	14.34          	0.892
MS.236         	14.31          	1.033
MS.237         	14.282         	1.057
MS.238         	14.255         	1.049
MS.239         	14.225         	0.935
MS.240         	14.197         	1.027
MS.241         	14.167         	1.041
MS.242         	14.14          	1.035
MS.243         	14.112         	1.027
MS.244         	14.085         	0.872
MS.245         	14.055         	0.912
MS.246         	14.028         	0.914
MS.247         	14             	1.029
MS.248         	13.972         	0.836
MS.249         	13.945         	1.035
MS.250         	13.915         	0.886
MS.251         	13.887         	0.689
MS.252         	13.86          	1.043
MS.253         	13.832         	1.013
MS.254         	13.805         	0.86
MS.255         	13.778         	0.8
MS.256         	13.75          	0.683
MS.257         	13.722         	0.725
MS.258         	13.695         	0.685
MS.259         	13.667         	0.739
MS.260         	13.64          	0.703
MS.261         	13.612         	0.834
MS.262         	13.585         	0.88
MS.263         	13.56          	0.598
MS.264         	13.532         	0.693
MS.265         	13.505         	0.62
MS.266         	13.477         	0.677
MS.267         	13.45          	0.896
MS.268         	13.425         	0.733
MS.269         	13.398         	0.681
MS.270         	13.37          	0.693
MS.271         	13.342         	0.707
MS.272         	13.318         	0.628
MS.273         	13.29          	0.651
MS.274         	13.265         	0.62
MS.275         	13.237         	0.636
MS.276         	13.21          	0.643
MS.277         	13.185         	0.683
MS.278         	13.157         	0.649
MS.279         	13.132         	0.63
MS.280         	13.105         	0.62
MS.281         	13.08          	0.618
MS.282         	13.052         	0.661
MS.283         	13.028         	0.606
MS.284         	13             	0.683
MS.285         	12.975         	0.661
MS.286         	12.95          	0.598
MS.287         	12.922         	0.659
MS.288         	12.898         	0.624
MS.289         	12.872         	0.659
MS.290         	12.845         	0.667
MS.291         	12.82          	0.598
MS.292         	12.795         	0.447
MS.293         	12.77          	0.592
MS.294         	12.742         	0.669
MS.295         	12.717         	0.451
MS.296         	12.693         	0.667
MS.297         	12.667         	0.51
MS.298         	12.642         	0.449
MS.299         	12.617         	0.447
MS.300         	12.592         	0.443
MS.301         	12.568         	0.451
MS.302         	12.542         	0.463
MS.303         	12.517         	0.677
MS.304         	12.492         	0.451
MS.305         	12.467         	0.618
MS.306         	12.443         	0.439
MS.307         	12.417         	0.455
MS.308         	12.392         	0.443
MS.309         	12.367         	0.451
MS.310         	12.342         	0.449
MS.311         	12.318         	0.451
MS.312         	12.292         	0.441
MS.313         	12.267         	0.449
MS.314         	12.245         	0.508
MS.315         	12.22          	0.439
MS.316         	12.195         	0.449
MS.317         	12.17          	0.445
MS.318         	12.148         	0.516
MS.319         	12.122         	0.518
MS.320         	12.097         	0.451
MS.321         	12.075         	0.443
MS.322         	12.05          	0.459
MS.323         	12.025         	0.441
MS.324         	12.002         	0.437
MS.325         	11.977         	0.447
MS.326         	11.952         	0.445
MS.327         	11.93          	0.445
MS.328         	11.905         	0.451
MS.329         	11.882         	0.445
MS.330         	11.858         	0.447
MS.331         	11.835         	0.441
MS.332         	11.81          	0.447
MS.333         	11.787         	0.451
MS.334         	11.765         	0.451
MS.335         	11.74          	0.443
MS.336         	11.717         	0.451
MS.337         	11.693         	0.443
MS.338         	11.67          	0.451
MS.339         	11.648         	0.256
MS.340         	11.622         	0.453
MS.341         	11.6           	0.445
MS.342         	11.577         	0.256
MS.343         	11.555         	0.443
MS.344         	11.53          	0.244
MS.345         	11.507         	0.248
MS.346         	11.485         	0.254
MS.347         	11.462         	0.254
MS.348         	11.44          	0.252
MS.349         	11.415         	0.252
MS.350         	11.392         	0.254
MS.351         	11.37          	0.256
MS.352         	11.347         	0.25
MS.353         	11.325         	0.258
MS.354         	11.302         	0.252
MS.355         	11.28          	0.256
MS.356         	11.257         	0.254
MS.357         	11.235         	0.117
MS.358         	11.212         	0.262
MS.359         	11.19          	0.25
MS.360         	11.167         	0.252
MS.361         	11.145         	0.25
MS.362         	11.122         	0.113
MS.363         	11.1           	0.258
MS.364         	11.08          	0.25
MS.365         	11.057         	0.25
MS.366         	11.035         	0.117
MS.367         	11.012         	0.258
MS.368         	10.99          	0.107
MS.369         	10.967         	0.125
MS.370         	10.948         	0.109
MS.371         	10.925         	0.107
MS.372         	10.903         	0.095
MS.373         	10.88          	0.105
MS.374         	10.86          	0.113
MS.375         	10.837         	0.107
MS.376         	10.815         	0.244
MS.377         	10.795         	0.109
MS.378         	10.773         	0.097
MS.379         	10.752         	0.099
MS.380         	10.73          	0.117
MS.381         	10.707         	0.232
MS.382         	10.688         	0.101
MS.383         	10.665         	0.097
MS.384         	10.645         	0.109
MS.385         	10.622         	0.097
MS.386         	10.602         	0.095
MS.387         	10.58          	0.095
MS.388         	10.56          	0.101
MS.389         	10.537         	0.097
MS.390         	10.517         	0.099
MS.391         	10.497         	0.101
MS.392         	10.475         	0.097
MS.393         	10.455         	0.097
MS.394         	10.432         	0.099
MS.395         	10.412         	0.097
MS.396         	10.392         	0.101
MS.397         	10.372         	0.099
MS.398         	10.35          	0.093
MS.399         	10.33          	0.095
MS.400         	10.31          	0.105
MS.401         	10.287         	0.105
MS.402         	10.267         	0.095
MS.403         	10.247         	0.095
MS.404         	10.227         	0.093
MS.405         	10.207         	0.103
MS.406         	10.185         	0.097
MS.407         	10.165         	0.095
MS.408         	10.145         	0.089
MS.409         	10.125         	0.093
MS.410         	10.105         	0.093
MS.411         	10.085         	0.095
MS.412         	10.065         	0.087
MS.413         	10.045         	0.093
MS.414         	10.025         	0.093
MS.415         	10.005         	0.095
MS.416         	9.985          	0.095
MS.417         	9.965          	0.099
MS.418         	9.945          	0.101
MS.419         	9.925          	0.099
MS.420         	9.905          	0.097
MS.421         	9.885          	0.095
MS.422         	9.865          	0.095
MS.423         	9.845          	0.097
MS.424         	9.825          	0.103
MS.425         	9.807          	0.095
MS.426         	9.787          	0.101
MS.427         	9.767          	0.097
MS.428         	9.747          	0.095
MS.429         	9.727          	0.095
MS.430         	9.71           	0.093
MS.431         	9.69           	0.095
MS.432         	9.67           	0.099
MS.433         	9.65           	0.097
MS.434         	9.632          	0.099
MS.435         	9.613          	0.099
MS.436         	9.592          	0.093
MS.437         	9.575          	0.099
MS.438         	9.555          	0.103
MS.439         	9.535          	0.099
MS.440         	9.517          	0.097
MS.441         	9.497          	0.099
MS.442         	9.477          	0.101
MS.443         	9.46           	0.099
MS.444         	9.44           	0.103
MS.445         	9.422          	0.101
MS.446         	9.403          	0.099
MS.447         	9.385          	0.101
MS.448         	9.365          	0.103
MS.449         	9.347          	0.101
MS.450         	9.327          	0.101
MS.451         	9.31           	0.097
MS.452         	9.29           	0.099
MS.453         	9.273          	0.099
MS.454         	9.255          	0.097
MS.455         	9.235          	0.103
MS.456         	9.217          	0.095
MS.457         	9.198          	0.103
MS.458         	9.18           	0.101
MS.459         	9.162          	0.099
MS.460         	9.142          	0.101
MS.461         	9.125          	0.101
MS.462         	9.108          	0.101
MS.463         	9.09           	0.103
MS.464         	9.07           	0.101
MS.465         	9.052          	0.101
MS.466         	9.035          	0.095
MS.467         	9.017          	0.103
MS.468         	8.997          	0.103
MS.469         	8.98           	0.101
MS.470         	8.962          	0.101
MS.471         	8.945          	0.099
MS.472         	8.927          	0.101
MS.473         	8.91           	0.097
MS.474         	8.89           	0.101
MS.475         	8.872          	0.101
MS.476         	8.855          	0.099
MS.477         	8.837          	0.099
MS.478         	8.82           	0.095
MS.479         	8.802          	0.099
MS.480         	8.785          	0.099
MS.481         	8.767          	0.103
MS.482         	8.75           	0.103
MS.483         	8.733          	0.097
MS.484         	8.715          	0.101
MS.485         	8.698          	0.099
MS.486         	8.68           	0.097
MS.487         	8.662          	0.099
MS.488         	8.645          	0.103
MS.489         	8.627          	0.097
MS.490         	8.61           	0.099
MS.491         	8.595          	0.103
MS.492         	8.577          	0.103
MS.493         	8.56           	0.097
MS.494         	8.542          	0.091
MS.495         	8.525          	0.099
MS.496         	8.507          	0.099
MS.497         	8.492          	0.099
MS.498         	8.475          	0.097
MS.499         	8.457          	0.101
MS.500         	8.44           	0.095
MS.501         	8.422          	0.099
MS.502         	8.408          	0.099
MS.503         	8.39           	0.099
MS.504         	8.372          	0.099
MS.505         	8.358          	0.099
MS.506         	8.34           	0.099
MS.507         	8.323          	0.097
MS.508         	8.307          	0.091
MS.509         	8.29           	0.099
MS.510         	8.273          	0.091
MS.511         	8.257          	0.097
MS.512         	8.24           	0.099
MS.513         	8.225          	0.091
MS.514         	8.207          	0.089
MS.515         	8.19           	0.091
MS.516         	8.175          	0.087
MS.517         	8.158          	0.101
MS.518         	8.142          	0.089
MS.519         	8.125          	0.089
MS.520         	8.11           	0.099
MS.521         	8.092          	0.093
MS.522         	8.077          	0.087
MS.523         	8.06           	0.089
MS.524         	8.045          	0.091
MS.525         	8.03           	0.087
MS.526         	8.012          	0.087
MS.527         	7.997          	0.087
MS.528         	7.98           	0.089
MS.529         	7.965          	0.091
MS.530         	7.95           	0.085
MS.531         	7.932          	0.087
MS.532         	7.918          	0.089
MS.533         	7.902          	0.087
MS.534         	7.885          	0.091
MS.535         	7.87           	0.087
MS.536         	7.855          	0.087
MS.537         	7.837          	0.091
MS.538         	7.822          	0.089
MS.539         	7.807          	0.089
MS.540         	7.793          	0.089
MS.541         	7.775          	0.095
MS.542         	7.76           	0.089
MS.543         	7.745          	0.091
MS.544         	7.73           	0.089
MS.545         	7.715          	0.087
MS.546         	7.697          	0.091
MS.547         	7.682          	0.091
MS.548         	7.668          	0.085
MS.549         	7.652          	0.089
MS.550         	7.637          	0.089
MS.551         	7.622          	0.087
MS.552         	7.607          	0.089
MS.553         	7.592          	0.089
MS.554         	7.577          	0.085
MS.555         	7.562          	0.085
MS.556         	7.545          	0.091
MS.557         	7.53           	0.091
MS.558         	7.515          	0.091
MS.559         	7.5            	0.091
MS.560         	7.485          	0.091
MS.561         	7.47           	0.091
MS.562         	7.455          	0.093
MS.563         	7.44           	0.093
MS.564         	7.427          	0.087
MS.565         	7.412          	0.091
MS.566         	7.398          	0.089
MS.567         	7.382          	0.089
MS.568         	7.367          	0.048
MS.569         	7.352          	0.095
MS.570         	7.337          	0.087
MS.571         	7.322          	0.087
MS.572         	7.307          	0.089
MS.573         	7.295          	0.05
MS.574         	7.28           	0.05
MS.575         	7.265          	0.05
MS.576         	7.25           	0.091
MS.577         	7.235          	0.048
MS.578         	7.222          	0.089
MS.579         	7.207          	0.089
MS.580         	7.192          	0.05
MS.581         	7.177          	0.054
MS.582         	7.165          	0.089
MS.583         	7.15           	0.05
MS.584         	7.135          	0.087
MS.585         	7.12           	0.044
MS.586         	7.108          	0.05
MS.587         	7.092          	0.05
MS.588         	7.077          	0.093
MS.589         	7.065          	0.052
MS.590         	7.05           	0.046
MS.591         	7.035          	0.052
MS.592         	7.023          	0.091
MS.593         	7.007          	0.052
MS.594         	6.995          	0.052
MS.595         	6.98           	0.052
MS.596         	6.965          	0.05
MS.597         	6.952          	0.054
MS.598         	6.938          	0.054
MS.599         	6.925          	0.05
MS.600         	6.91           	0.046
MS.601         	6.898          	0.048
MS.602         	6.882          	0.054
MS.603         	6.87           	0.05
MS.604         	6.855          	0.052
MS.605         	6.842          	0.048
MS.606         	6.827          	0.048
MS.607         	6.815          	0.046
MS.608         	6.8            	0.05
MS.609         	6.787          	0.05
MS.610         	6.773          	0.048
MS.611         	6.76           	0.054
MS.612         	6.747          	0.048
MS.613         	6.733          	0.052
MS.614         	6.72           	0.054
MS.615         	6.705          	0.048
MS.616         	6.692          	0.05
MS.617         	6.68           	0.05
MS.618         	6.665          	0.05
MS.619         	6.652          	0.052
MS.620         	6.64           	0.048
MS.621         	6.625          	0.046
MS.622         	6.612          	0.046
MS.623         	6.6            	0.048
MS.624         	6.587          	0.048
MS.625         	6.572          	0.05
MS.626         	6.56           	0.044
MS.627         	6.547          	0.05
MS.628         	6.535          	0.046
MS.629         	6.52           	0.054
MS.630         	6.507          	0.044
MS.631         	6.495          	0.05
MS.632         	6.483          	0.052
MS.633         	6.47           	0.042
MS.634         	6.455          	0.044
MS.635         	6.442          	0.044
MS.636         	6.43           	0.046
MS.637         	6.418          	0.044
MS.638         	6.405          	0.042
MS.639         	6.392          	0.042
MS.640         	6.38           	0.046
MS.641         	6.367          	0.042
MS.642         	6.352          	0.046
MS.643         	6.34           	0.044
MS.644         	6.327          	0.044
MS.645         	6.315          	0.046
MS.646         	6.302          	0.044
MS.647         	6.29           	0.046
MS.648         	6.277          	0.046
MS.649         	6.265          	0.044
MS.650         	6.253          	0.05
MS.651         	6.24           	0.042
MS.652         	6.227          	0.046
MS.653         	6.215          	0.046
MS.654         	6.202          	0.048
MS.655         	6.19           	0.046
MS.656         	6.177          	0.046
MS.657         	6.165          	0.048
MS.658         	6.152          	0.044
MS.659         	6.142          	0.046
MS.660         	6.13           	0.046
MS.661         	6.117          	0.046
MS.662         	6.105          	0.046
MS.663         	6.092          	0.05
MS.664         	6.08           	0.046
MS.665         	6.067          	0.044
MS.666         	6.055          	0.044
MS.667         	6.045          	0.042
MS.668         	6.032          	0.05
MS.669         	6.02           	0.048
MS.670         	6.007          	0.044
MS.671         	5.995          	0.048
MS.672         	5.983          	0.046
MS.673         	5.972          	0.042
MS.674         	5.96           	0.048
MS.675         	5.947          	0.044
MS.676         	5.935          	0.044
MS.677         	5.925          	0.046
MS.678         	5.912          	0.044
MS.679         	5.9            	0.04
MS.680         	5.887          	0.044
MS.681         	5.878          	0.044
MS.682         	5.865          	0.05
MS.683         	5.852          	0.046
MS.684         	5.842          	0.048
MS.685         	5.83           	0.044
MS.686         	5.817          	0.044
MS.687         	5.807          	0.048
MS.688         	5.795          	0.046
MS.689         	5.782          	0.042
MS.690         	5.773          	0.044
MS.691         	5.76           	0.044
MS.692         	5.75           	0.042
MS.693         	5.737          	0.046
MS.694         	5.725          	0.044
MS.695         	5.715          	0.044
MS.696         	5.702          	0.046
MS.697         	5.692          	0.044
MS.698         	5.68           	0.044
MS.699         	5.67           	0.046
MS.700         	5.657          	0.044
MS.701         	5.648          	0.046
MS.702         	5.635          	0.048
MS.703         	5.625          	0.046
MS.704         	5.612          	0.046
MS.705         	5.602          	0.046
MS.706         	5.59           	0.046
MS.707         	5.58           	0.046
MS.708         	5.567          	0.046
MS.709         	5.557          	0.046
MS.710         	5.545          	0.042
MS.711         	5.535          	0.044
MS.712         	5.523          	0.046
MS.713         	5.512          	0.038
MS.714         	5.503          	0.046
MS.715         	5.49           	0.046
MS.716         	5.48           	0.046
MS.717         	5.467          	0.048
MS.718         	5.457          	0.044
MS.719         	5.447          	0.042
MS.720         	5.435          	0.042
MS.721         	5.425          	0.044
MS.722         	5.415          	0.046
MS.723         	5.402          	0.044
MS.724         	5.392          	0.048
MS.725         	5.382          	0.05
MS.726         	5.37           	0.042
MS.727         	5.36           	0.044
MS.728         	5.35           	0.044
MS.729         	5.34           	0.048
MS.730         	5.327          	0.048
MS.731         	5.318          	0.046
MS.732         	5.307          	0.046
MS.733         	5.297          	0.046
MS.734         	5.285          	0.046
MS.735         	5.275          	0.042
MS.736         	5.265          	0.048
MS.737         	5.255          	0.044
MS.738         	5.245          	0.05
MS.739         	5.233          	0.044
MS.740         	5.222          	0.044
MS.741         	5.213          	0.044
MS.742         	5.202          	0.046
MS.743         	5.193          	0.046
MS.744         	5.18           	0.046
MS.745         	5.17           	0.046
MS.746         	5.16           	0.044
MS.747         	5.15           	0.046
MS.748         	5.14           	0.048
MS.749         	5.13           	0.046
MS.750         	5.12           	0.044
MS.751         	5.11           	0.044
MS.752         	5.1            	0.046
MS.753         	5.09           	0.042
MS.754         	5.077          	0.05
MS.755         	5.068          	0.046
MS.756         	5.057          	0.044
MS.757         	5.047          	0.046
MS.758         	5.037          	0.048
MS.759         	5.027          	0.044
MS.760         	5.017          	0.046
MS.761         	5.007          	0.046
MS.762         	4.997          	0.046
MS.763         	4.987          	0.046
MS.764         	4.977          	0.044
MS.765         	4.967          	0.046
MS.766         	4.957          	0.044
MS.767         	4.947          	0.044
MS.768         	4.938          	0.044
MS.769         	4.927          	0.048
MS.770         	4.918          	0.046
MS.771         	4.91           	0.046
MS.772         	4.9            	0.046
MS.773         	4.89           	0.046
MS.774         	4.88           	0.046
MS.775         	4.87           	0.044
MS.776         	4.86           	0.044
MS.777         	4.85           	0.048
MS.778         	4.84           	0.042
MS.779         	4.83           	0.048
MS.780         	4.822          	0.048
MS.781         	4.812          	0.05
MS.782         	4.802          	0.046
MS.783         	4.793          	0.046
MS.784         	4.782          	0.046
MS.785         	4.773          	0.048
MS.786         	4.765          	0.046
MS.787         	4.755          	0.04
MS.788         	4.745          	0.048
MS.789         	4.735          	0.052
MS.790         	4.725          	0.04
MS.791         	4.717          	0.042
MS.792         	4.707          	0.046
MS.793         	4.697          	0.05
MS.794         	4.688          	0.044
MS.795         	4.68           	0.044
MS.796         	4.67           	0.048
MS.797         	4.66           	0.044
MS.798         	4.65           	0.046
MS.799         	4.642          	0.044
MS.800         	4.632          	0.044
MS.801         	4.622          	0.044
MS.802         	4.612          	0.048
MS.803         	4.605          	0.044
MS.804         	4.595          	0.044
MS.805         	4.585          	0.044
MS.806         	4.577          	0.046
MS.807         	4.568          	0.052
MS.808         	4.557          	0.046
MS.809         	4.55           	0.046
MS.810         	4.54           	0.05
MS.811         	4.532          	0.048
MS.812         	4.523          	0.052
MS.813         	4.512          	0.05
MS.814         	4.505          	0.044
MS.815         	4.495          	0.044
MS.816         	4.487          	0.042
MS.817         	4.477          	0.044
MS.818         	4.467          	0.046
MS.819         	4.46           	0.048
MS.820         	4.45           	0.05
MS.821         	4.443          	0.046
MS.822         	4.432          	0.044
MS.823         	4.425          	0.046
MS.824         	4.415          	0.046
MS.825         	4.407          	0.044
MS.826         	4.398          	0.044
MS.827         	4.387          	0.044
MS.828         	4.38           	0.046
MS.829         	4.37           	0.046
MS.830         	4.362          	0.042
MS.831         	4.355          	0.04
MS.832         	4.345          	0.044
MS.833         	4.338          	0.046
MS.834         	4.327          	0.048
MS.835         	4.32           	0.046
MS.836         	4.31           	0.044
MS.837         	4.302          	0.05
MS.838         	4.293          	0.044
MS.839         	4.285          	0.046
MS.840         	4.275          	0.044
MS.841         	4.267          	0.042
MS.842         	4.26           	0.048
MS.843         	4.25           	0.042
MS.844         	4.242          	0.048
MS.845         	4.233          	0.054
MS.846         	4.225          	0.048
MS.847         	4.217          	0.048
MS.848         	4.207          	0.046
MS.849         	4.2            	0.048
MS.850         	4.193          	0.048
MS.851         	4.182          	0.05
MS.852         	4.175          	0.044
MS.853         	4.168          	0.048
MS.854         	4.157          	0.044
MS.855         	4.15           	0.044
MS.856         	4.142          	0.044
MS.857         	4.132          	0.046
MS.858         	4.125          	0.048
MS.859         	4.117          	0.046
MS.860         	4.108          	0.048
MS.861         	4.1            	0.048
MS.862         	4.092          	0.046
MS.863         	4.085          	0.048
MS.864         	4.075          	0.046
MS.865         	4.068          	0.046
MS.866         	4.06           	0.048
MS.867         	4.052          	0.042
MS.868         	4.043          	0.044
MS.869         	4.035          	0.05
MS.870         	4.027          	0.042
MS.871         	4.02           	0.048
MS.872         	4.01           	0.044
MS.873         	4.003          	0.046
MS.874         	3.995          	0.044
MS.875         	3.987          	0.048
MS.876         	3.98           	0.008
MS.877         	3.97           	0.048
MS.878         	3.962          	0.012
MS.879         	3.955          	0.046
MS.880         	3.947          	0.008
MS.881         	3.94           	0.006
MS.882         	3.932          	0.008
MS.883         	3.922          	0.008
MS.884         	3.915          	0.046
MS.885         	3.908          	0.004
MS.886         	3.9            	0.008
MS.887         	3.892          	0.006
MS.888         	3.885          	0.006
MS.889         	3.877          	0.006
MS.890         	3.87           	0.052
MS.891         	3.862          	0.014
MS.892         	3.852          	0.006
MS.893         	3.845          	0.006
MS.894         	3.837          	0.01
MS.895         	3.83           	0.004
MS.896         	3.822          	0.004
MS.897         	3.815          	0.012
MS.898         	3.807          	0.008
MS.899         	3.8            	0.008
MS.900         	3.793          	0.006
MS.901         	3.785          	0.002
MS.902         	3.777          	0.000
MS.903         	3.77           	0.014
MS.904         	3.762          	0.012
MS.905         	3.755          	0.000
MS.906         	3.747          	0.014
MS.907         	3.74           	0.004
MS.908         	3.732          	0.014
MS.909         	3.725          	0.006
MS.910         	3.717          	0.014
MS.911         	3.71           	0.008
MS.912         	3.702          	0.008
DERIVED EXCITABILITY VARIABLES
Program = QTracP 3/4/2020
Threshold method = 6 (optimised for CAP, using data for present condition only)
SR method = 1 (using actual data values)
6.                 	0.000               	Peak response\(mV)
9.                 	33.8                	Temperature ( C)
17.                	59                  	Age (years)
18.                	2                   	Sex (M=1, F=2)

EXTRA VARIABLES

MScPeak(mV) = 10.12
MScS5(mA) = 12.49
MScS50(mA) = 16.85
MScS95(mA) = 19.75
MScNSteps = 6
MScSteps(%) = 18.7
MScStepMax(%) = 3.7
MScD50 = 31
MScSlope = 6.53
MSFPeakAmp(mV) = 10.1
MSFNUnits = 82
MSFMeanUnitAmp(uV) = 123.7
MSFHuntTime(m) = 3.24
MSFError(%) = 3.27
MSFNLarge = 28.13
MSFMedianAmp(%) = 1.16
MSFMedianAmp(mV) = 0.118
MSFHalfAmpAmp(%) = 1.42
MSFHalfAmpAmp(mV) = 0.144
MSFLargestAmp(%) = 2.45
MSFLargestAmp(mV) = 0.248
MSFMeanRS(%) = 2
MSFOpts = 10106121
MScDuration(min) = 8.6
MSFTraces = 648
MSFSizeLimit(uV) = 25.3
MSFLimitType = 1
MSFSmallestAmp(uV) = 29.7

EXTRA WAVEFORMS


!MScan Model
!82
	1	7.39	0.37	2
	2	10.88	0.55	2
	3	11.15	0.91	2
	4	11.44	0.57	2
	5	11.65	1.54	2
	6	12.73	1.62	2
	7	13.26	0.93	2
	8	13.76	1.39	2
	9	14.06	1.46	2
	10	14.35	0.98	2
	11	14.55	0.81	2
	12	14.74	1.03	2
	13	14.94	1.62	2
	14	15.03	1.79	2
	15	15.13	1.92	2
	16	15.22	2.13	2
	17	15.27	1.61	2
	18	15.31	0.61	2
	19	15.36	1.62	2
	20	15.41	1.93	2
	21	15.46	2	2
	22	15.52	1.59	2
	23	15.58	1.63	2
	24	15.63	1.48	2
	25	15.69	1.42	2
	26	15.74	1.39	2
	27	15.79	1.59	2
	28	15.89	2	2
	29	16	1.01	2
	30	16.14	2.12	2
	31	16.24	1.16	2
	32	16.32	1.42	2
	33	16.5	2.45	2
	34	16.59	1.12	2
	35	16.69	1.53	2
	36	16.78	1.48	2
	37	16.87	1.34	2
	38	16.95	1.23	2
	39	17.02	1.19	2
	40	17.06	0.84	2
	41	17.11	1.17	2
	42	17.15	1.14	2
	43	17.18	0.77	2
	44	17.21	0.6	2
	45	17.23	0.58	2
	46	17.26	0.53	2
	47	17.28	0.64	2
	48	17.31	0.73	2
	49	17.33	0.75	2
	50	17.37	1.11	2
	51	17.41	1.15	2
	52	17.45	0.77	2
	53	17.49	0.98	2
	54	17.55	1.27	2
	55	17.61	1.78	2
	56	17.67	1.47	2
	57	17.72	1.11	2
	58	17.77	0.99	2
	59	17.82	0.91	2
	60	17.88	0.99	2
	61	17.94	1.18	2
	62	18.01	0.66	2
	63	18.09	1.27	2
	64	18.19	1.76	2
	65	18.27	0.76	2
	66	18.33	0.63	2
	67	18.39	0.63	2
	68	18.45	0.59	2
	69	18.51	0.57	2
	70	18.56	0.75	2
	71	18.64	1.14	2
	72	18.76	1.41	2
	73	18.92	1.9	2
	74	19.13	2.35	2
	75	19.25	0.99	2
	76	19.35	0.74	2
	77	19.53	1.79	2
	78	19.99	1.94	2
	79	20.29	1.72	2
	80	20.49	0.96	2
	81	20.87	1.17	2
	82	20.87	0.29	2

