File:              	C:\Qtrac\Data\Daniel M Sørensen\MScan multicentre study\Data from centres\Edmonton\MSCC00218C.QZD
Name:              	CA.EDM.NC.3.2
Protocol:          	MSCAN-R2
Date:              	18/2/20
Start time:        	09:42:54
Age:               	47
Sex:               	M
Temperature:       	35.2
S/R sites:         	CP Kn-TA
NC/disease:        	NC
Operator:          	KJ
Comments:
M-SCAN DATA (6.5-1.2m)
Scanpts: 30, 33, 560, 582
Stim. (mA)     	Amp. (mV)
MS.1           	17             	8.192
MS.2           	17             	8.23
MS.3           	17             	8.196
MS.4           	17             	8.204
MS.5           	17             	8.175
MS.6           	17             	8.202
MS.7           	17             	8.18
MS.8           	17             	8.182
MS.9           	17             	8.196
MS.10          	17             	8.165
MS.11          	17             	8.208
MS.12          	17             	8.262
MS.13          	17             	8.204
MS.14          	17             	8.242
MS.15          	17             	8.186
MS.16          	17             	8.182
MS.17          	17             	8.208
MS.18          	17             	8.206
MS.19          	17             	8.252
MS.20          	17             	8.182
MS.21          	17             	8.21
MS.22          	17             	8.226
MS.23          	17             	8.286
MS.24          	16.932         	8.262
MS.25          	16.897         	8.294
MS.26          	16.865         	8.262
MS.27          	16.83          	8.242
MS.28          	16.797         	8.252
MS.29          	16.762         	8.262
MS.30          	16.73          	8.256
MS.31          	16.698         	8.31
MS.32          	16.663         	8.274
MS.33          	16.63          	8.28
MS.34          	16.597         	8.308
MS.35          	16.562         	8.298
MS.36          	16.53          	8.262
MS.37          	16.497         	8.274
MS.38          	16.465         	8.254
MS.39          	16.432         	8.226
MS.40          	16.4           	8.25
MS.41          	16.365         	8.292
MS.42          	16.333         	8.167
MS.43          	16.3           	8.236
MS.44          	16.267         	8.161
MS.45          	16.235         	8.254
MS.46          	16.202         	8.2
MS.47          	16.17          	8.182
MS.48          	16.137         	8.288
MS.49          	16.108         	8.236
MS.50          	16.075         	8.21
MS.51          	16.042         	8.28
MS.52          	16.01          	8.244
MS.53          	15.977         	8.224
MS.54          	15.945         	8.302
MS.55          	15.915         	8.288
MS.56          	15.882         	8.208
MS.57          	15.85          	8.288
MS.58          	15.82          	8.218
MS.59          	15.787         	8.23
MS.60          	15.755         	8.23
MS.61          	15.725         	8.252
MS.62          	15.693         	8.308
MS.63          	15.662         	8.248
MS.64          	15.63          	8.18
MS.65          	15.6           	8.377
MS.66          	15.568         	8.25
MS.67          	15.537         	8.234
MS.68          	15.505         	8.238
MS.69          	15.475         	8.288
MS.70          	15.445         	8.262
MS.71          	15.412         	8.242
MS.72          	15.382         	8.248
MS.73          	15.352         	8.19
MS.74          	15.32          	8.21
MS.75          	15.29          	8.173
MS.76          	15.26          	8.3
MS.77          	15.23          	8.268
MS.78          	15.197         	8.228
MS.79          	15.167         	8.194
MS.80          	15.137         	8.19
MS.81          	15.108         	8.216
MS.82          	15.077         	8.2
MS.83          	15.047         	8.21
MS.84          	15.017         	8.194
MS.85          	14.987         	8.244
MS.86          	14.957         	8.222
MS.87          	14.927         	8.252
MS.88          	14.898         	8.196
MS.89          	14.867         	8.175
MS.90          	14.837         	8.159
MS.91          	14.807         	8.202
MS.92          	14.78          	8.22
MS.93          	14.75          	8.167
MS.94          	14.72          	8.186
MS.95          	14.69          	8.222
MS.96          	14.662         	8.196
MS.97          	14.632         	8.177
MS.98          	14.602         	8.137
MS.99          	14.572         	8.184
MS.100         	14.545         	8.182
MS.101         	14.515         	8.214
MS.102         	14.487         	8.171
MS.103         	14.457         	8.159
MS.104         	14.427         	8.173
MS.105         	14.4           	8.188
MS.106         	14.37          	8.109
MS.107         	14.342         	8.049
MS.108         	14.312         	8.151
MS.109         	14.285         	8.246
MS.110         	14.257         	8.192
MS.111         	14.227         	8.184
MS.112         	14.2           	8.093
MS.113         	14.17          	8.075
MS.114         	14.142         	8.087
MS.115         	14.115         	8.093
MS.116         	14.087         	8.145
MS.117         	14.057         	8.032
MS.118         	14.03          	8.167
MS.119         	14.002         	8.053
MS.120         	13.975         	8.02
MS.121         	13.945         	8.051
MS.122         	13.917         	8.089
MS.123         	13.89          	8.065
MS.124         	13.862         	8.077
MS.125         	13.835         	8.034
MS.126         	13.807         	8.036
MS.127         	13.78          	7.956
MS.128         	13.752         	8.059
MS.129         	13.725         	7.98
MS.130         	13.697         	7.902
MS.131         	13.67          	8.024
MS.132         	13.642         	7.954
MS.133         	13.615         	7.994
MS.134         	13.587         	7.891
MS.135         	13.56          	7.928
MS.136         	13.535         	7.918
MS.137         	13.507         	7.853
MS.138         	13.48          	7.869
MS.139         	13.452         	7.926
MS.140         	13.425         	7.896
MS.141         	13.4           	7.881
MS.142         	13.372         	7.853
MS.143         	13.345         	7.9
MS.144         	13.32          	7.779
MS.145         	13.292         	7.845
MS.146         	13.265         	7.811
MS.147         	13.24          	7.859
MS.148         	13.212         	7.946
MS.149         	13.188         	7.845
MS.150         	13.16          	7.748
MS.151         	13.135         	7.815
MS.152         	13.108         	7.746
MS.153         	13.082         	7.761
MS.154         	13.055         	7.787
MS.155         	13.03          	7.9
MS.156         	13.002         	7.849
MS.157         	12.977         	7.803
MS.158         	12.952         	7.783
MS.159         	12.925         	7.851
MS.160         	12.9           	7.825
MS.161         	12.875         	7.781
MS.162         	12.847         	7.841
MS.163         	12.822         	7.857
MS.164         	12.797         	7.811
MS.165         	12.773         	7.805
MS.166         	12.745         	7.829
MS.167         	12.72          	7.837
MS.168         	12.695         	7.875
MS.169         	12.67          	7.793
MS.170         	12.645         	7.869
MS.171         	12.62          	7.795
MS.172         	12.595         	7.565
MS.173         	12.568         	7.753
MS.174         	12.542         	7.825
MS.175         	12.517         	7.668
MS.176         	12.492         	7.712
MS.177         	12.467         	7.765
MS.178         	12.443         	7.553
MS.179         	12.42          	7.547
MS.180         	12.395         	7.626
MS.181         	12.37          	7.571
MS.182         	12.345         	7.44
MS.183         	12.32          	7.62
MS.184         	12.295         	7.555
MS.185         	12.27          	7.551
MS.186         	12.245         	7.634
MS.187         	12.222         	7.7
MS.188         	12.197         	7.424
MS.189         	12.172         	7.66
MS.190         	12.148         	7.493
MS.191         	12.125         	7.43
MS.192         	12.1           	7.356
MS.193         	12.075         	7.483
MS.194         	12.052         	7.466
MS.195         	12.028         	7.287
MS.196         	12.002         	7.39
MS.197         	11.98          	7.466
MS.198         	11.955         	7.346
MS.199         	11.932         	7.344
MS.200         	11.907         	7.442
MS.201         	11.885         	7.243
MS.202         	11.86          	7.362
MS.203         	11.837         	7.352
MS.204         	11.812         	7.251
MS.205         	11.79          	7.281
MS.206         	11.765         	7.243
MS.207         	11.742         	7.303
MS.208         	11.72          	7.191
MS.209         	11.695         	7.265
MS.210         	11.672         	7.168
MS.211         	11.65          	7.201
MS.212         	11.625         	7.106
MS.213         	11.602         	7.315
MS.214         	11.58          	7.189
MS.215         	11.555         	7.112
MS.216         	11.532         	7.084
MS.217         	11.51          	7.128
MS.218         	11.488         	7.084
MS.219         	11.465         	7.146
MS.220         	11.44          	6.913
MS.221         	11.417         	7.12
MS.222         	11.395         	6.856
MS.223         	11.372         	7.007
MS.224         	11.35          	6.866
MS.225         	11.327         	6.925
MS.226         	11.305         	7.001
MS.227         	11.282         	6.856
MS.228         	11.26          	6.977
MS.229         	11.238         	6.959
MS.230         	11.215         	6.824
MS.231         	11.193         	6.774
MS.232         	11.17          	6.824
MS.233         	11.148         	6.774
MS.234         	11.125         	6.766
MS.235         	11.102         	6.844
MS.236         	11.08          	6.675
MS.237         	11.057         	6.788
MS.238         	11.037         	6.695
MS.239         	11.015         	6.747
MS.240         	10.992         	6.695
MS.241         	10.97          	6.667
MS.242         	10.948         	6.55
MS.243         	10.927         	6.496
MS.244         	10.905         	6.629
MS.245         	10.882         	6.498
MS.246         	10.863         	6.308
MS.247         	10.84          	6.586
MS.248         	10.818         	6.439
MS.249         	10.797         	6.28
MS.250         	10.775         	6.419
MS.251         	10.752         	6.324
MS.252         	10.733         	6.496
MS.253         	10.71          	6.27
MS.254         	10.69          	6.326
MS.255         	10.667         	6.107
MS.256         	10.648         	6.276
MS.257         	10.625         	6.153
MS.258         	10.605         	5.976
MS.259         	10.582         	6.149
MS.260         	10.562         	6.296
MS.261         	10.54          	5.889
MS.262         	10.52          	6.081
MS.263         	10.497         	5.835
MS.264         	10.477         	5.873
MS.265         	10.457         	5.658
MS.266         	10.435         	5.809
MS.267         	10.415         	5.636
MS.268         	10.395         	5.678
MS.269         	10.372         	5.591
MS.270         	10.352         	5.734
MS.271         	10.332         	5.642
MS.272         	10.31          	5.605
MS.273         	10.29          	5.597
MS.274         	10.27          	5.579
MS.275         	10.25          	5.464
MS.276         	10.23          	5.64
MS.277         	10.207         	5.694
MS.278         	10.188         	5.392
MS.279         	10.167         	5.507
MS.280         	10.148         	5.537
MS.281         	10.127         	5.432
MS.282         	10.108         	5.378
MS.283         	10.087         	5.342
MS.284         	10.068         	5.346
MS.285         	10.047         	5.481
MS.286         	10.028         	5.287
MS.287         	10.005         	5.392
MS.288         	9.988          	5.279
MS.289         	9.967          	5.201
MS.290         	9.948          	5.311
MS.291         	9.927          	5.285
MS.292         	9.907          	5.164
MS.293         	9.887          	5.09
MS.294         	9.867          	5.13
MS.295         	9.847          	5.178
MS.296         	9.827          	5.015
MS.297         	9.807          	4.884
MS.298         	9.787          	4.892
MS.299         	9.77           	5.066
MS.300         	9.75           	4.778
MS.301         	9.73           	4.945
MS.302         	9.71           	4.842
MS.303         	9.69           	4.973
MS.304         	9.672          	4.802
MS.305         	9.653          	4.751
MS.306         	9.632          	4.498
MS.307         	9.615          	4.409
MS.308         	9.595          	4.534
MS.309         	9.575          	4.683
MS.310         	9.557          	4.701
MS.311         	9.537          	4.425
MS.312         	9.517          	4.596
MS.313         	9.5            	4.437
MS.314         	9.48           	4.431
MS.315         	9.462          	4.514
MS.316         	9.443          	4.403
MS.317         	9.422          	4.318
MS.318         	9.405          	4.385
MS.319         	9.385          	4.379
MS.320         	9.367          	4.369
MS.321         	9.347          	4.208
MS.322         	9.33           	4.292
MS.323         	9.31           	4.149
MS.324         	9.292          	4.155
MS.325         	9.275          	4.075
MS.326         	9.255          	4.111
MS.327         	9.238          	4.069
MS.328         	9.217          	3.948
MS.329         	9.2            	4.093
MS.330         	9.182          	4.065
MS.331         	9.162          	3.827
MS.332         	9.145          	4.036
MS.333         	9.127          	3.702
MS.334         	9.108          	3.706
MS.335         	9.09           	3.799
MS.336         	9.073          	3.668
MS.337         	9.055          	3.589
MS.338         	9.035          	3.827
MS.339         	9.017          	3.557
MS.340         	9              	3.553
MS.341         	8.983          	3.658
MS.342         	8.965          	3.458
MS.343         	8.945          	3.728
MS.344         	8.927          	3.591
MS.345         	8.91           	3.515
MS.346         	8.892          	3.523
MS.347         	8.875          	3.464
MS.348         	8.858          	3.196
MS.349         	8.84           	3.305
MS.350         	8.823          	3.388
MS.351         	8.805          	3.346
MS.352         	8.787          	3.396
MS.353         	8.77           	3.281
MS.354         	8.752          	3.11
MS.355         	8.735          	2.971
MS.356         	8.717          	3.025
MS.357         	8.7            	2.778
MS.358         	8.682          	3.118
MS.359         	8.665          	3.066
MS.360         	8.648          	2.862
MS.361         	8.63           	2.86
MS.362         	8.613          	2.993
MS.363         	8.595          	2.933
MS.364         	8.577          	3.086
MS.365         	8.56           	2.79
MS.366         	8.545          	2.844
MS.367         	8.528          	2.717
MS.368         	8.51           	2.707
MS.369         	8.492          	2.574
MS.370         	8.475          	2.55
MS.371         	8.46           	2.965
MS.372         	8.443          	2.739
MS.373         	8.425          	2.612
MS.374         	8.408          	2.641
MS.375         	8.392          	2.403
MS.376         	8.375          	2.502
MS.377         	8.358          	2.518
MS.378         	8.34           	2.326
MS.379         	8.325          	2.28
MS.380         	8.307          	2.441
MS.381         	8.292          	2.431
MS.382         	8.275          	2.173
MS.383         	8.257          	2.276
MS.384         	8.242          	2.109
MS.385         	8.225          	2.324
MS.386         	8.21           	2.036
MS.387         	8.193          	2.014
MS.388         	8.175          	2.052
MS.389         	8.16           	2.197
MS.390         	8.142          	2.026
MS.391         	8.127          	1.831
MS.392         	8.11           	2.028
MS.393         	8.095          	1.944
MS.394         	8.077          	1.851
MS.395         	8.062          	2.03
MS.396         	8.047          	1.815
MS.397         	8.03           	1.893
MS.398         	8.015          	1.861
MS.399         	7.997          	1.883
MS.400         	7.982          	1.873
MS.401         	7.965          	1.847
MS.402         	7.95           	1.698
MS.403         	7.935          	1.708
MS.404         	7.918          	1.591
MS.405         	7.902          	1.648
MS.406         	7.887          	1.537
MS.407         	7.87           	1.638
MS.408         	7.855          	1.517
MS.409         	7.84           	1.482
MS.410         	7.825          	1.523
MS.411         	7.807          	1.482
MS.412         	7.793          	1.605
MS.413         	7.777          	1.372
MS.414         	7.762          	1.414
MS.415         	7.747          	1.472
MS.416         	7.73           	1.41
MS.417         	7.715          	1.376
MS.418         	7.7            	1.366
MS.419         	7.685          	1.305
MS.420         	7.67           	1.261
MS.421         	7.655          	1.352
MS.422         	7.637          	1.253
MS.423         	7.622          	1.341
MS.424         	7.607          	1.253
MS.425         	7.592          	1.2
MS.426         	7.577          	1.285
MS.427         	7.562          	1.267
MS.428         	7.547          	1.19
MS.429         	7.532          	1.172
MS.430         	7.517          	1.243
MS.431         	7.503          	1.092
MS.432         	7.487          	1.11
MS.433         	7.472          	1.045
MS.434         	7.457          	0.927
MS.435         	7.442          	1.18
MS.436         	7.427          	1.084
MS.437         	7.412          	1.162
MS.438         	7.398          	1.186
MS.439         	7.382          	1.019
MS.440         	7.367          	0.999
MS.441         	7.352          	0.957
MS.442         	7.34           	0.995
MS.443         	7.325          	0.955
MS.444         	7.31           	0.884
MS.445         	7.295          	0.777
MS.446         	7.28           	0.963
MS.447         	7.265          	0.961
MS.448         	7.253          	0.717
MS.449         	7.237          	0.693
MS.450         	7.222          	0.703
MS.451         	7.207          	0.81
MS.452         	7.192          	0.683
MS.453         	7.18           	0.689
MS.454         	7.165          	0.624
MS.455         	7.15           	0.749
MS.456         	7.137          	0.61
MS.457         	7.122          	0.659
MS.458         	7.108          	0.657
MS.459         	7.092          	0.546
MS.460         	7.08           	0.594
MS.461         	7.065          	0.56
MS.462         	7.052          	0.568
MS.463         	7.037          	0.612
MS.464         	7.023          	0.622
MS.465         	7.01           	0.568
MS.466         	6.995          	0.556
MS.467         	6.98           	0.536
MS.468         	6.967          	0.481
MS.469         	6.952          	0.55
MS.470         	6.94           	0.56
MS.471         	6.925          	0.359
MS.472         	6.912          	0.516
MS.473         	6.898          	0.481
MS.474         	6.885          	0.413
MS.475         	6.87           	0.429
MS.476         	6.858          	0.385
MS.477         	6.842          	0.532
MS.478         	6.83           	0.359
MS.479         	6.815          	0.371
MS.480         	6.802          	0.236
MS.481         	6.787          	0.187
MS.482         	6.775          	0.365
MS.483         	6.762          	0.294
MS.484         	6.747          	0.203
MS.485         	6.735          	0.175
MS.486         	6.72           	0.264
MS.487         	6.707          	0.248
MS.488         	6.695          	0.296
MS.489         	6.68           	0.228
MS.490         	6.668          	0.133
MS.491         	6.655          	0.252
MS.492         	6.64           	0.121
MS.493         	6.628          	0.143
MS.494         	6.615          	0.143
MS.495         	6.6            	0.244
MS.496         	6.587          	0.06
MS.497         	6.575          	0.127
MS.498         	6.562          	0.087
MS.499         	6.547          	0.066
MS.500         	6.535          	0.089
MS.501         	6.523          	0.085
MS.502         	6.51           	0.056
MS.503         	6.495          	0.05
MS.504         	6.483          	0.056
MS.505         	6.47           	0.083
MS.506         	6.457          	0.064
MS.507         	6.445          	0.079
MS.508         	6.432          	0.046
MS.509         	6.418          	0.068
MS.510         	6.405          	0.046
MS.511         	6.392          	0.046
MS.512         	6.38           	0.064
MS.513         	6.367          	0.081
MS.514         	6.355          	0.036
MS.515         	6.342          	0.024
MS.516         	6.33           	0.066
MS.517         	6.317          	0.028
MS.518         	6.305          	0.03
MS.519         	6.293          	0.03
MS.520         	6.28           	0.022
MS.521         	6.267          	0.024
MS.522         	6.255          	0.03
MS.523         	6.242          	0.03
MS.524         	6.23           	0.01
MS.525         	6.217          	0.03
MS.526         	6.205          	0.008
MS.527         	6.192          	0.032
MS.528         	6.18           	0.008
MS.529         	6.168          	0.028
MS.530         	6.155          	0.008
MS.531         	6.142          	0.03
MS.532         	6.13           	0.012
MS.533         	6.117          	0.008
MS.534         	6.105          	0.008
MS.535         	6.092          	0.008
MS.536         	6.08           	0.01
MS.537         	6.07           	0.004
MS.538         	6.057          	0.01
MS.539         	6.045          	0.01
MS.540         	6.032          	0.01
MS.541         	6.02           	0.008
MS.542         	6.007          	0.01
MS.543         	5.997          	0.01
MS.544         	5.985          	0.01
MS.545         	5.972          	0.012
MS.546         	5.96           	0.01
MS.547         	5.95           	0.01
MS.548         	5.938          	0.012
MS.549         	5.925          	0.01
MS.550         	5.912          	0.01
MS.551         	5.902          	0.01
MS.552         	5.89           	0.008
MS.553         	5.878          	0.01
MS.554         	5.865          	0.008
MS.555         	5.855          	0.01
MS.556         	5.842          	0.012
MS.557         	5.83           	0.008
MS.558         	5.82           	0.01
MS.559         	5.807          	0.006
MS.560         	5.795          	0.006
MS.561         	5.785          	0.008
MS.562         	5.773          	0.01
MS.563         	5.762          	0.012
MS.564         	5.75           	0.008
MS.565         	5.737          	0.006
MS.566         	5.727          	0.01
MS.567         	5.715          	0.004
MS.568         	5.705          	0.008
MS.569         	5.692          	0.008
MS.570         	5.682          	0.008
MS.571         	5.67           	0.008
MS.572         	5.66           	0.008
MS.573         	5.648          	0.006
MS.574         	5.635          	0.012
MS.575         	5.625          	0.012
MS.576         	5.612          	0.008
MS.577         	5.602          	0.01
MS.578         	5.592          	0.008
MS.579         	5.58           	0.006
MS.580         	5.57           	0.01
MS.581         	5.557          	0.01
MS.582         	5.547          	0.01
DERIVED EXCITABILITY VARIABLES
Program = QTracP 3/4/2020
Threshold method = 6 (optimised for CAP, using data for present condition only)
SR method = 1 (using actual data values)
6.                 	0.000               	Peak response\(mV)
9.                 	35.2                	Temperature ( C)
17.                	47                  	Age (years)
18.                	1                   	Sex (M=1, F=2)

EXTRA VARIABLES

MScPeak(mV) = 8.2
MScS5(mA) = 6.88
MScS50(mA) = 9.26
MScS95(mA) = 12.96
MScNSteps = 0
MScSteps(%) = 0.0
MScStepMax(%) = 0.0
MScD50 = 70
MScSlope = 3.79
MSFPeakAmp(mV) = 8.27
MSFNUnits = 139
MSFMeanUnitAmp(uV) = 59.5
MSFHuntTime(m) = 2.6
MSFError(%) = 2.83
MSFNLarge = 42.72
MSFMedianAmp(%) = 0.606
MSFMedianAmp(mV) = 0.0501
MSFHalfAmpAmp(%) = 0.825
MSFHalfAmpAmp(mV) = 0.0682
MSFLargestAmp(%) = 2.39
MSFLargestAmp(mV) = 0.198
MSFMeanRS(%) = 2
MSFOpts = 10106121
MScDuration(min) = 5.3
MSFTraces = 553
MSFSizeLimit(uV) = 20.7
MSFLimitType = 1
MSFSmallestAmp(uV) = 22.1

EXTRA WAVEFORMS


!MScan Model
!139
	1	6.34	0.39	2
	2	6.49	0.35	2
	3	6.55	0.37	2
	4	6.6	0.36	2
	5	6.71	1.13	2
	6	6.76	0.58	2
	7	6.8	0.63	2
	8	6.84	0.64	2
	9	6.89	1.13	2
	10	7.02	0.72	2
	11	7.1	1.13	2
	12	7.15	0.41	2
	13	7.19	0.7	2
	14	7.22	0.54	2
	15	7.24	0.38	2
	16	7.27	0.45	2
	17	7.29	0.48	2
	18	7.35	1.51	2
	19	7.46	1.39	2
	20	7.52	0.73	2
	21	7.55	0.47	2
	22	7.59	0.43	2
	23	7.61	0.35	2
	24	7.64	0.44	2
	25	7.66	0.29	2
	26	7.69	0.39	2
	27	7.73	0.45	2
	28	7.76	0.45	2
	29	7.8	0.64	2
	30	7.84	0.51	2
	31	7.85	0.41	2
	32	7.87	0.45	2
	33	7.89	0.37	2
	34	7.9	0.37	2
	35	7.92	0.41	2
	36	7.94	0.32	2
	37	7.96	0.39	2
	38	8.01	0.99	2
	39	8.06	1.06	2
	40	8.12	0.79	2
	41	8.16	0.67	2
	42	8.19	0.78	2
	43	8.22	0.83	2
	44	8.25	0.56	2
	45	8.27	0.46	2
	46	8.29	0.62	2
	47	8.34	1.26	2
	48	8.38	1.16	2
	49	8.43	1.39	2
	50	8.51	1.82	2
	51	8.64	2.01	2
	52	8.67	0.46	2
	53	8.7	0.96	2
	54	8.74	0.93	2
	55	8.76	0.53	2
	56	8.78	0.28	2
	57	8.8	0.65	2
	58	8.88	2.39	2
	59	8.97	1.87	2
	60	9.01	0.42	2
	61	9.04	0.42	2
	62	9.06	0.51	2
	63	9.09	0.74	2
	64	9.11	0.51	2
	65	9.13	0.27	2
	66	9.15	0.32	2
	67	9.17	0.59	2
	68	9.2	0.73	2
	69	9.22	0.89	2
	70	9.25	0.69	2
	71	9.28	0.54	2
	72	9.29	0.39	2
	73	9.31	0.34	2
	74	9.33	0.32	2
	75	9.36	0.59	2
	76	9.39	0.61	2
	77	9.42	0.65	2
	78	9.45	0.57	2
	79	9.5	0.74	2
	80	9.57	0.87	2
	81	9.62	1.34	2
	82	9.67	1.22	2
	83	9.74	1.08	2
	84	9.78	1.15	2
	85	9.81	0.86	2
	86	9.83	0.33	2
	87	9.84	0.44	2
	88	9.89	0.58	2
	89	9.91	0.38	2
	90	9.92	0.38	2
	91	9.95	0.57	2
	92	9.98	0.37	2
	93	10.01	0.4	2
	94	10.07	0.97	2
	95	10.14	0.84	2
	96	10.18	0.48	2
	97	10.29	1.36	2
	98	10.36	0.53	2
	99	10.39	0.85	2
	100	10.42	0.6	2
	101	10.45	0.9	2
	102	10.49	0.47	2
	103	10.52	0.68	2
	104	10.55	0.92	2
	105	10.6	1.32	2
	106	10.65	1.09	2
	107	10.7	0.73	2
	108	10.76	0.86	2
	109	10.82	1.17	2
	110	10.86	0.66	2
	111	10.89	0.51	2
	112	10.93	0.55	2
	113	10.96	0.55	2
	114	11	0.52	2
	115	11.03	0.32	2
	116	11.07	0.39	2
	117	11.11	0.51	2
	118	11.15	0.6	2
	119	11.21	0.58	2
	120	11.32	0.81	2
	121	11.41	1.05	2
	122	11.49	0.82	2
	123	11.57	0.73	2
	124	11.64	0.62	2
	125	11.75	0.87	2
	126	11.88	0.78	2
	127	12.04	1.02	2
	128	12.13	0.99	2
	129	12.4	1.48	2
	130	12.5	0.79	2
	131	12.66	1.32	2
	132	13.41	1.11	2.4
	133	13.53	0.45	2
	134	13.66	0.51	2
	135	13.81	0.77	2
	136	14.02	0.73	2
	137	14.44	0.92	2
	138	15.36	0.42	2
	139	16.27	0.46	2

