File:              	C:\Qtrac\Data\Daniel M Sørensen\MScan multicentre study\Data from centres\Edmonton\MSCC00302D.QZD
Name:              	CA.EDM.NC.6.1
Protocol:          	MSCAN-R2
Date:              	2/3/20
Start time:        	13:43:54
Age:               	66
Sex:               	M
Temperature:       	33.3
S/R sites:         	CP Kn-TA
NC/disease:        	NC
Operator:          	KJ
Comments:
M-SCAN DATA (10.1-2.3m)
Scanpts: 8, 12, 770, 786
Stim. (mA)     	Amp. (mV)
MS.1           	34             	5.412
MS.2           	34             	5.444
MS.3           	34             	5.44
MS.4           	34             	5.4
MS.5           	34             	5.35
MS.6           	34             	5.422
MS.7           	34             	5.426
MS.8           	34             	5.382
MS.9           	34             	5.384
MS.10          	34             	5.416
MS.11          	34             	5.442
MS.12          	34             	5.4
MS.13          	34             	5.392
MS.14          	34             	5.422
MS.15          	34             	5.394
MS.16          	34             	5.426
MS.17          	34             	5.404
MS.18          	34             	5.364
MS.19          	34             	5.402
MS.20          	34             	5.422
MS.21          	34             	5.378
MS.22          	34             	5.392
MS.23          	34             	5.428
MS.24          	33.865         	5.352
MS.25          	33.798         	5.41
MS.26          	33.73          	5.38
MS.27          	33.662         	5.392
MS.28          	33.595         	5.323
MS.29          	33.528         	5.41
MS.30          	33.46          	5.305
MS.31          	33.392         	5.297
MS.32          	33.327         	5.384
MS.33          	33.26          	5.253
MS.34          	33.193         	5.243
MS.35          	33.127         	5.249
MS.36          	33.06          	5.36
MS.37          	32.995         	5.317
MS.38          	32.93          	5.237
MS.39          	32.862         	5.257
MS.40          	32.798         	5.277
MS.41          	32.732         	5.17
MS.42          	32.667         	5.267
MS.43          	32.603         	5.195
MS.44          	32.537         	5.172
MS.45          	32.472         	5.156
MS.46          	32.407         	5.184
MS.47          	32.342         	5.16
MS.48          	32.278         	5.154
MS.49          	32.212         	5.188
MS.50          	32.147         	5.148
MS.51          	32.085         	5.152
MS.52          	32.02          	5.132
MS.53          	31.955         	5.16
MS.54          	31.892         	5.114
MS.55          	31.827         	5.148
MS.56          	31.765         	5.12
MS.57          	31.702         	5.104
MS.58          	31.637         	5.06
MS.59          	31.575         	5.086
MS.60          	31.512         	5.092
MS.61          	31.448         	5.098
MS.62          	31.385         	5.11
MS.63          	31.323         	5.058
MS.64          	31.26          	5.098
MS.65          	31.198         	5.074
MS.66          	31.135         	5.039
MS.67          	31.073         	5.031
MS.68          	31.012         	5.068
MS.69          	30.95          	5.076
MS.70          	30.887         	5.043
MS.71          	30.825         	4.971
MS.72          	30.765         	5.025
MS.73          	30.702         	5.058
MS.74          	30.642         	5.049
MS.75          	30.58          	5.005
MS.76          	30.52          	5.017
MS.77          	30.457         	5.025
MS.78          	30.397         	5.033
MS.79          	30.337         	5.013
MS.80          	30.275         	5.019
MS.81          	30.215         	5.003
MS.82          	30.155         	4.969
MS.83          	30.095         	4.963
MS.84          	30.035         	5.013
MS.85          	29.975         	4.909
MS.86          	29.915         	4.929
MS.87          	29.855         	4.935
MS.88          	29.795         	4.913
MS.89          	29.735         	4.786
MS.90          	29.677         	4.939
MS.91          	29.617         	4.782
MS.92          	29.557         	4.9
MS.93          	29.5           	4.935
MS.94          	29.44          	4.945
MS.95          	29.382         	4.834
MS.96          	29.323         	4.844
MS.97          	29.265         	4.852
MS.98          	29.205         	4.647
MS.99          	29.147         	4.727
MS.100         	29.09          	4.778
MS.101         	29.03          	4.622
MS.102         	28.972         	4.709
MS.103         	28.915         	4.62
MS.104         	28.858         	4.631
MS.105         	28.8           	4.786
MS.106         	28.743         	4.592
MS.107         	28.685         	4.735
MS.108         	28.627         	4.314
MS.109         	28.57          	4.532
MS.110         	28.512         	4.224
MS.111         	28.455         	4.538
MS.112         	28.4           	4.224
MS.113         	28.342         	4.449
MS.114         	28.285         	4.157
MS.115         	28.23          	4.357
MS.116         	28.172         	4.353
MS.117         	28.118         	4.31
MS.118         	28.06          	3.895
MS.119         	28.005         	4.29
MS.120         	27.948         	3.914
MS.121         	27.892         	4.002
MS.122         	27.837         	3.916
MS.123         	27.78          	4.218
MS.124         	27.725         	3.863
MS.125         	27.67          	3.875
MS.126         	27.615         	3.851
MS.127         	27.56          	3.922
MS.128         	27.505         	3.787
MS.129         	27.45          	3.775
MS.130         	27.395         	3.883
MS.131         	27.34          	3.805
MS.132         	27.285         	3.71
MS.133         	27.23          	3.553
MS.134         	27.177         	3.795
MS.135         	27.122         	3.589
MS.136         	27.067         	3.585
MS.137         	27.015         	3.48
MS.138         	26.96          	3.567
MS.139         	26.905         	3.704
MS.140         	26.852         	3.484
MS.141         	26.8           	3.666
MS.142         	26.745         	3.487
MS.143         	26.692         	3.545
MS.144         	26.637         	3.589
MS.145         	26.585         	3.579
MS.146         	26.532         	3.519
MS.147         	26.48          	3.44
MS.148         	26.425         	3.454
MS.149         	26.372         	3.489
MS.150         	26.32          	3.408
MS.151         	26.267         	3.43
MS.152         	26.215         	3.388
MS.153         	26.162         	3.378
MS.154         	26.11          	3.287
MS.155         	26.06          	3.261
MS.156         	26.007         	3.356
MS.157         	25.955         	3.396
MS.158         	25.903         	3.325
MS.159         	25.85          	3.333
MS.160         	25.8           	3.323
MS.161         	25.747         	3.219
MS.162         	25.698         	3.321
MS.163         	25.645         	3.293
MS.164         	25.595         	3.221
MS.165         	25.542         	3.281
MS.166         	25.493         	3.307
MS.167         	25.44          	3.293
MS.168         	25.39          	3.299
MS.169         	25.34          	3.257
MS.170         	25.288         	3.275
MS.171         	25.237         	3.215
MS.172         	25.188         	3.257
MS.173         	25.137         	3.16
MS.174         	25.087         	3.223
MS.175         	25.038         	3.241
MS.176         	24.987         	3.215
MS.177         	24.938         	3.201
MS.178         	24.887         	3.186
MS.179         	24.837         	3.225
MS.180         	24.788         	3.198
MS.181         	24.737         	3.261
MS.182         	24.69          	3.132
MS.183         	24.64          	3.279
MS.184         	24.59          	3.223
MS.185         	24.542         	3.186
MS.186         	24.493         	3.255
MS.187         	24.442         	3.241
MS.188         	24.395         	3.198
MS.189         	24.345         	3.227
MS.190         	24.297         	3.221
MS.191         	24.247         	3.279
MS.192         	24.2           	3.229
MS.193         	24.153         	3.201
MS.194         	24.102         	3.217
MS.195         	24.055         	3.18
MS.196         	24.007         	3.247
MS.197         	23.96          	3.136
MS.198         	23.913         	3.164
MS.199         	23.862         	3.1
MS.200         	23.815         	3.253
MS.201         	23.767         	3.144
MS.202         	23.72          	3.168
MS.203         	23.672         	3.225
MS.204         	23.625         	3.144
MS.205         	23.58          	3.096
MS.206         	23.532         	3.066
MS.207         	23.485         	3.106
MS.208         	23.438         	3.13
MS.209         	23.39          	3.207
MS.210         	23.345         	3.053
MS.211         	23.297         	3.096
MS.212         	23.25          	3.08
MS.213         	23.205         	3.055
MS.214         	23.157         	3.07
MS.215         	23.112         	3.098
MS.216         	23.065         	3.001
MS.217         	23.02          	3.066
MS.218         	22.975         	3.11
MS.219         	22.927         	3.162
MS.220         	22.882         	3.122
MS.221         	22.837         	3.047
MS.222         	22.79          	3.039
MS.223         	22.745         	3.041
MS.224         	22.7           	3.07
MS.225         	22.655         	3.039
MS.226         	22.61          	3.045
MS.227         	22.565         	2.977
MS.228         	22.52          	3.045
MS.229         	22.475         	3.009
MS.230         	22.43          	2.987
MS.231         	22.385         	2.945
MS.232         	22.34          	3.007
MS.233         	22.295         	2.888
MS.234         	22.25          	2.997
MS.235         	22.205         	2.927
MS.236         	22.163         	2.983
MS.237         	22.118         	2.937
MS.238         	22.073         	2.981
MS.239         	22.03          	2.971
MS.240         	21.985         	2.886
MS.241         	21.94          	2.981
MS.242         	21.897         	2.977
MS.243         	21.852         	2.828
MS.244         	21.81          	2.917
MS.245         	21.765         	2.912
MS.246         	21.722         	2.923
MS.247         	21.68          	2.91
MS.248         	21.635         	2.864
MS.249         	21.592         	2.912
MS.250         	21.55          	2.902
MS.251         	21.507         	2.753
MS.252         	21.462         	2.792
MS.253         	21.42          	2.935
MS.254         	21.377         	2.794
MS.255         	21.335         	2.83
MS.256         	21.292         	2.856
MS.257         	21.25          	2.759
MS.258         	21.208         	2.812
MS.259         	21.165         	2.832
MS.260         	21.122         	2.729
MS.261         	21.08          	2.717
MS.262         	21.038         	2.715
MS.263         	20.997         	2.759
MS.264         	20.955         	2.546
MS.265         	20.913         	2.56
MS.266         	20.87          	2.612
MS.267         	20.83          	2.721
MS.268         	20.788         	2.62
MS.269         	20.745         	2.608
MS.270         	20.705         	2.562
MS.271         	20.663         	2.584
MS.272         	20.622         	2.655
MS.273         	20.58          	2.532
MS.274         	20.54          	2.518
MS.275         	20.497         	2.588
MS.276         	20.458         	2.512
MS.277         	20.417         	2.516
MS.278         	20.375         	2.556
MS.279         	20.335         	2.522
MS.280         	20.295         	2.572
MS.281         	20.255         	2.522
MS.282         	20.212         	2.328
MS.283         	20.172         	2.498
MS.284         	20.132         	2.338
MS.285         	20.092         	2.344
MS.286         	20.052         	2.522
MS.287         	20.012         	2.483
MS.288         	19.972         	2.498
MS.289         	19.932         	2.369
MS.290         	19.892         	2.34
MS.291         	19.852         	2.246
MS.292         	19.812         	2.304
MS.293         	19.775         	2.306
MS.294         	19.735         	2.212
MS.295         	19.695         	2.238
MS.296         	19.655         	2.262
MS.297         	19.615         	2.099
MS.298         	19.577         	2.127
MS.299         	19.538         	2.236
MS.300         	19.5           	2.195
MS.301         	19.46          	2.135
MS.302         	19.42          	2.183
MS.303         	19.382         	2.167
MS.304         	19.342         	2.105
MS.305         	19.305         	2.131
MS.306         	19.267         	2.195
MS.307         	19.227         	2.137
MS.308         	19.19          	2.141
MS.309         	19.15          	2.125
MS.310         	19.112         	2.109
MS.311         	19.075         	2.121
MS.312         	19.038         	2.133
MS.313         	18.997         	2.228
MS.314         	18.96          	2.113
MS.315         	18.922         	2.145
MS.316         	18.885         	2.177
MS.317         	18.847         	2.069
MS.318         	18.81          	2.22
MS.319         	18.772         	2.121
MS.320         	18.735         	2.137
MS.321         	18.698         	2.117
MS.322         	18.66          	2.04
MS.323         	18.622         	2.073
MS.324         	18.585         	2.123
MS.325         	18.547         	2.046
MS.326         	18.51          	2.06
MS.327         	18.475         	2.115
MS.328         	18.438         	2.073
MS.329         	18.4           	2.075
MS.330         	18.362         	2.06
MS.331         	18.327         	2.067
MS.332         	18.29          	2.036
MS.333         	18.253         	1.895
MS.334         	18.217         	2.069
MS.335         	18.18          	1.843
MS.336         	18.145         	1.821
MS.337         	18.108         	1.837
MS.338         	18.073         	2.034
MS.339         	18.035         	1.839
MS.340         	18             	2.038
MS.341         	17.965         	1.869
MS.342         	17.927         	2.03
MS.343         	17.892         	2.016
MS.344         	17.858         	1.851
MS.345         	17.82          	1.521
MS.346         	17.785         	1.509
MS.347         	17.75          	1.488
MS.348         	17.715         	2.022
MS.349         	17.677         	1.855
MS.350         	17.642         	1.863
MS.351         	17.608         	1.545
MS.352         	17.573         	1.853
MS.353         	17.538         	1.857
MS.354         	17.503         	1.537
MS.355         	17.467         	1.531
MS.356         	17.432         	1.545
MS.357         	17.397         	1.69
MS.358         	17.362         	1.553
MS.359         	17.327         	1.738
MS.360         	17.295         	1.559
MS.361         	17.26          	1.529
MS.362         	17.225         	1.537
MS.363         	17.19          	1.523
MS.364         	17.155         	1.511
MS.365         	17.122         	1.533
MS.366         	17.087         	1.533
MS.367         	17.052         	1.529
MS.368         	17.02          	1.531
MS.369         	16.985         	1.507
MS.370         	16.952         	1.521
MS.371         	16.917         	1.533
MS.372         	16.885         	1.517
MS.373         	16.85          	1.543
MS.374         	16.817         	1.533
MS.375         	16.782         	1.49
MS.376         	16.75          	1.507
MS.377         	16.715         	1.527
MS.378         	16.682         	1.513
MS.379         	16.65          	1.523
MS.380         	16.615         	1.49
MS.381         	16.583         	1.555
MS.382         	16.55          	1.478
MS.383         	16.517         	1.517
MS.384         	16.483         	1.503
MS.385         	16.45          	1.531
MS.386         	16.417         	1.476
MS.387         	16.385         	1.509
MS.388         	16.352         	1.466
MS.389         	16.32          	1.486
MS.390         	16.288         	1.531
MS.391         	16.255         	1.474
MS.392         	16.222         	1.482
MS.393         	16.19          	1.519
MS.394         	16.157         	1.414
MS.395         	16.125         	1.484
MS.396         	16.092         	1.48
MS.397         	16.06          	1.478
MS.398         	16.028         	1.47
MS.399         	15.997         	1.486
MS.400         	15.965         	1.472
MS.401         	15.932         	1.416
MS.402         	15.9           	1.472
MS.403         	15.87          	1.474
MS.404         	15.837         	1.468
MS.405         	15.805         	1.416
MS.406         	15.775         	1.418
MS.407         	15.742         	1.458
MS.408         	15.71          	1.406
MS.409         	15.68          	1.488
MS.410         	15.648         	1.414
MS.411         	15.617         	1.426
MS.412         	15.585         	1.43
MS.413         	15.555         	1.418
MS.414         	15.523         	1.478
MS.415         	15.492         	1.43
MS.416         	15.462         	1.424
MS.417         	15.43          	1.289
MS.418         	15.4           	1.418
MS.419         	15.37          	1.37
MS.420         	15.337         	1.323
MS.421         	15.307         	1.343
MS.422         	15.277         	1.341
MS.423         	15.247         	1.404
MS.424         	15.215         	1.456
MS.425         	15.185         	1.394
MS.426         	15.155         	1.321
MS.427         	15.125         	1.4
MS.428         	15.095         	1.345
MS.429         	15.065         	1.333
MS.430         	15.035         	1.436
MS.431         	15.005         	1.339
MS.432         	14.975         	1.327
MS.433         	14.945         	1.341
MS.434         	14.915         	1.263
MS.435         	14.885         	1.317
MS.436         	14.855         	1.233
MS.437         	14.825         	1.347
MS.438         	14.795         	1.321
MS.439         	14.767         	1.263
MS.440         	14.737         	1.267
MS.441         	14.707         	1.269
MS.442         	14.677         	1.273
MS.443         	14.65          	1.17
MS.444         	14.62          	1.166
MS.445         	14.59          	1.321
MS.446         	14.56          	1.281
MS.447         	14.532         	1.17
MS.448         	14.502         	1.239
MS.449         	14.475         	1.259
MS.450         	14.445         	1.204
MS.451         	14.417         	1.217
MS.452         	14.387         	1.174
MS.453         	14.358         	1.263
MS.454         	14.33          	1.156
MS.455         	14.302         	1.221
MS.456         	14.273         	1.17
MS.457         	14.245         	1.174
MS.458         	14.215         	1.168
MS.459         	14.188         	1.033
MS.460         	14.16          	1.154
MS.461         	14.13          	1.174
MS.462         	14.102         	1.182
MS.463         	14.075         	1.178
MS.464         	14.047         	1.031
MS.465         	14.017         	1.039
MS.466         	13.99          	1.16
MS.467         	13.962         	1.025
MS.468         	13.935         	1.154
MS.469         	13.907         	1.019
MS.470         	13.877         	0.997
MS.471         	13.85          	1.025
MS.472         	13.822         	1.025
MS.473         	13.795         	1.031
MS.474         	13.767         	0.979
MS.475         	13.74          	0.876
MS.476         	13.712         	1.013
MS.477         	13.685         	0.943
MS.478         	13.657         	0.939
MS.479         	13.63          	0.908
MS.480         	13.605         	0.947
MS.481         	13.577         	0.874
MS.482         	13.55          	0.953
MS.483         	13.523         	0.937
MS.484         	13.495         	0.894
MS.485         	13.467         	0.904
MS.486         	13.443         	0.908
MS.487         	13.415         	0.957
MS.488         	13.387         	0.949
MS.489         	13.36          	0.86
MS.490         	13.335         	0.796
MS.491         	13.307         	0.862
MS.492         	13.282         	0.864
MS.493         	13.255         	0.852
MS.494         	13.227         	0.955
MS.495         	13.202         	0.866
MS.496         	13.175         	0.699
MS.497         	13.15          	0.82
MS.498         	13.122         	0.769
MS.499         	13.097         	0.59
MS.500         	13.07          	0.677
MS.501         	13.045         	0.788
MS.502         	13.017         	0.834
MS.503         	12.992         	0.79
MS.504         	12.967         	0.697
MS.505         	12.94          	0.709
MS.506         	12.915         	0.62
MS.507         	12.89          	0.739
MS.508         	12.862         	0.582
MS.509         	12.837         	0.657
MS.510         	12.812         	0.679
MS.511         	12.785         	0.719
MS.512         	12.76          	0.632
MS.513         	12.735         	0.564
MS.514         	12.71          	0.58
MS.515         	12.685         	0.546
MS.516         	12.66          	0.614
MS.517         	12.632         	0.572
MS.518         	12.608         	0.61
MS.519         	12.582         	0.502
MS.520         	12.557         	0.489
MS.521         	12.532         	0.554
MS.522         	12.507         	0.622
MS.523         	12.483         	0.574
MS.524         	12.457         	0.604
MS.525         	12.432         	0.61
MS.526         	12.407         	0.526
MS.527         	12.382         	0.578
MS.528         	12.358         	0.578
MS.529         	12.335         	0.612
MS.530         	12.31          	0.528
MS.531         	12.285         	0.491
MS.532         	12.26          	0.643
MS.533         	12.235         	0.508
MS.534         	12.21          	0.512
MS.535         	12.188         	0.582
MS.536         	12.162         	0.508
MS.537         	12.137         	0.588
MS.538         	12.115         	0.516
MS.539         	12.09          	0.487
MS.540         	12.065         	0.487
MS.541         	12.042         	0.407
MS.542         	12.017         	0.51
MS.543         	11.992         	0.502
MS.544         	11.97          	0.487
MS.545         	11.945         	0.502
MS.546         	11.922         	0.506
MS.547         	11.898         	0.342
MS.548         	11.875         	0.373
MS.549         	11.85          	0.455
MS.550         	11.827         	0.497
MS.551         	11.802         	0.344
MS.552         	11.78          	0.457
MS.553         	11.755         	0.336
MS.554         	11.733         	0.473
MS.555         	11.71          	0.445
MS.556         	11.685         	0.306
MS.557         	11.662         	0.314
MS.558         	11.64          	0.286
MS.559         	11.615         	0.326
MS.560         	11.592         	0.302
MS.561         	11.57          	0.308
MS.562         	11.545         	0.324
MS.563         	11.523         	0.276
MS.564         	11.5           	0.415
MS.565         	11.477         	0.3
MS.566         	11.455         	0.314
MS.567         	11.432         	0.29
MS.568         	11.407         	0.28
MS.569         	11.385         	0.298
MS.570         	11.363         	0.298
MS.571         	11.34          	0.288
MS.572         	11.318         	0.421
MS.573         	11.295         	0.278
MS.574         	11.273         	0.284
MS.575         	11.25          	0.282
MS.576         	11.227         	0.32
MS.577         	11.205         	0.29
MS.578         	11.182         	0.254
MS.579         	11.16          	0.278
MS.580         	11.137         	0.27
MS.581         	11.115         	0.26
MS.582         	11.092         	0.242
MS.583         	11.073         	0.278
MS.584         	11.05          	0.258
MS.585         	11.028         	0.244
MS.586         	11.005         	0.193
MS.587         	10.983         	0.23
MS.588         	10.96          	0.25
MS.589         	10.94          	0.266
MS.590         	10.917         	0.234
MS.591         	10.895         	0.228
MS.592         	10.875         	0.228
MS.593         	10.852         	0.218
MS.594         	10.83          	0.25
MS.595         	10.81          	0.195
MS.596         	10.787         	0.214
MS.597         	10.765         	0.218
MS.598         	10.745         	0.228
MS.599         	10.722         	0.211
MS.600         	10.7           	0.181
MS.601         	10.68          	0.216
MS.602         	10.657         	0.183
MS.603         	10.637         	0.211
MS.604         	10.615         	0.171
MS.605         	10.595         	0.232
MS.606         	10.573         	0.183
MS.607         	10.552         	0.22
MS.608         	10.532         	0.177
MS.609         	10.51          	0.175
MS.610         	10.49          	0.173
MS.611         	10.467         	0.183
MS.612         	10.448         	0.201
MS.613         	10.427         	0.197
MS.614         	10.405         	0.193
MS.615         	10.385         	0.161
MS.616         	10.365         	0.169
MS.617         	10.342         	0.165
MS.618         	10.323         	0.185
MS.619         	10.302         	0.159
MS.620         	10.282         	0.133
MS.621         	10.26          	0.141
MS.622         	10.24          	0.205
MS.623         	10.22          	0.147
MS.624         	10.2           	0.141
MS.625         	10.18          	0.131
MS.626         	10.16          	0.135
MS.627         	10.137         	0.149
MS.628         	10.117         	0.171
MS.629         	10.097         	0.133
MS.630         	10.077         	0.149
MS.631         	10.057         	0.137
MS.632         	10.037         	0.127
MS.633         	10.017         	0.119
MS.634         	9.997          	0.123
MS.635         	9.977          	0.139
MS.636         	9.957          	0.109
MS.637         	9.938          	0.117
MS.638         	9.917          	0.127
MS.639         	9.898          	0.111
MS.640         	9.877          	0.127
MS.641         	9.858          	0.151
MS.642         	9.84           	0.143
MS.643         	9.82           	0.107
MS.644         	9.8            	0.101
MS.645         	9.78           	0.139
MS.646         	9.76           	0.121
MS.647         	9.74           	0.139
MS.648         	9.722          	0.141
MS.649         	9.702          	0.141
MS.650         	9.682          	0.143
MS.651         	9.662          	0.127
MS.652         	9.645          	0.139
MS.653         	9.625          	0.129
MS.654         	9.605          	0.119
MS.655         	9.587          	0.119
MS.656         	9.568          	0.121
MS.657         	9.547          	0.121
MS.658         	9.53           	0.117
MS.659         	9.51           	0.117
MS.660         	9.49           	0.123
MS.661         	9.472          	0.129
MS.662         	9.452          	0.119
MS.663         	9.435          	0.117
MS.664         	9.415          	0.115
MS.665         	9.398          	0.111
MS.666         	9.377          	0.111
MS.667         	9.36           	0.117
MS.668         	9.34           	0.109
MS.669         	9.323          	0.105
MS.670         	9.302          	0.109
MS.671         	9.285          	0.101
MS.672         	9.265          	0.099
MS.673         	9.247          	0.105
MS.674         	9.23           	0.099
MS.675         	9.21           	0.107
MS.676         	9.193          	0.107
MS.677         	9.175          	0.095
MS.678         	9.155          	0.099
MS.679         	9.137          	0.109
MS.680         	9.12           	0.101
MS.681         	9.1            	0.097
MS.682         	9.082          	0.105
MS.683         	9.065          	0.103
MS.684         	9.047          	0.101
MS.685         	9.028          	0.103
MS.686         	9.01           	0.095
MS.687         	8.992          	0.095
MS.688         	8.975          	0.087
MS.689         	8.957          	0.097
MS.690         	8.938          	0.099
MS.691         	8.92           	0.085
MS.692         	8.903          	0.107
MS.693         	8.885          	0.085
MS.694         	8.867          	0.085
MS.695         	8.85           	0.077
MS.696         	8.832          	0.087
MS.697         	8.815          	0.089
MS.698         	8.797          	0.083
MS.699         	8.78           	0.077
MS.700         	8.762          	0.083
MS.701         	8.745          	0.081
MS.702         	8.727          	0.083
MS.703         	8.71           	0.07
MS.704         	8.693          	0.056
MS.705         	8.675          	0.075
MS.706         	8.658          	0.062
MS.707         	8.64           	0.066
MS.708         	8.622          	0.064
MS.709         	8.605          	0.054
MS.710         	8.587          	0.048
MS.711         	8.57           	0.062
MS.712         	8.552          	0.062
MS.713         	8.537          	0.048
MS.714         	8.52           	0.058
MS.715         	8.502          	0.05
MS.716         	8.485          	0.048
MS.717         	8.467          	0.066
MS.718         	8.452          	0.064
MS.719         	8.435          	0.058
MS.720         	8.417          	0.066
MS.721         	8.4            	0.048
MS.722         	8.385          	0.034
MS.723         	8.367          	0.036
MS.724         	8.35           	0.038
MS.725         	8.335          	0.038
MS.726         	8.318          	0.042
MS.727         	8.3            	0.034
MS.728         	8.285          	0.034
MS.729         	8.267          	0.036
MS.730         	8.25           	0.036
MS.731         	8.235          	0.032
MS.732         	8.217          	0.038
MS.733         	8.202          	0.046
MS.734         	8.185          	0.03
MS.735         	8.17           	0.038
MS.736         	8.153          	0.032
MS.737         	8.137          	0.03
MS.738         	8.12           	0.028
MS.739         	8.105          	0.03
MS.740         	8.087          	0.034
MS.741         	8.073          	0.036
MS.742         	8.055          	0.034
MS.743         	8.04           	0.032
MS.744         	8.023          	0.03
MS.745         	8.007          	0.022
MS.746         	7.992          	0.03
MS.747         	7.975          	0.028
MS.748         	7.96           	0.032
MS.749         	7.942          	0.03
MS.750         	7.927          	0.024
MS.751         	7.912          	0.02
MS.752         	7.895          	0.018
MS.753         	7.88           	0.03
MS.754         	7.865          	0.02
MS.755         	7.85           	0.026
MS.756         	7.832          	0.02
MS.757         	7.817          	0.02
MS.758         	7.802          	0.022
MS.759         	7.785          	0.018
MS.760         	7.77           	0.02
MS.761         	7.755          	0.02
MS.762         	7.74           	0.02
MS.763         	7.725          	0.022
MS.764         	7.71           	0.02
MS.765         	7.692          	0.018
MS.766         	7.677          	0.018
MS.767         	7.662          	0.018
MS.768         	7.648          	0.018
MS.769         	7.632          	0.018
MS.770         	7.617          	0.02
MS.771         	7.602          	0.02
MS.772         	7.587          	0.018
MS.773         	7.57           	0.02
MS.774         	7.555          	0.018
MS.775         	7.54           	0.018
MS.776         	7.525          	0.018
MS.777         	7.51           	0.016
MS.778         	7.495          	0.02
MS.779         	7.48           	0.02
MS.780         	7.465          	0.018
MS.781         	7.45           	0.018
MS.782         	7.435          	0.02
MS.783         	7.422          	0.018
MS.784         	7.407          	0.018
MS.785         	7.392          	0.018
MS.786         	7.378          	0.018
MS.787         	7.362          	0.018
MS.788         	7.347          	0.018
MS.789         	7.332          	0.016
MS.790         	7.317          	0.02
MS.791         	7.302          	0.016
MS.792         	7.29           	0.016
MS.793         	7.275          	0.018
MS.794         	7.26           	0.016
MS.795         	7.245          	0.018
MS.796         	7.23           	0.016
MS.797         	7.217          	0.016
MS.798         	7.202          	0.012
MS.799         	7.188          	0.02
MS.800         	7.172          	0.018
MS.801         	7.16           	0.018
MS.802         	7.145          	0.012
MS.803         	7.13           	0.012
MS.804         	7.115          	0.012
MS.805         	7.102          	0.012
MS.806         	7.087          	0.014
MS.807         	7.072          	0.018
MS.808         	7.06           	0.012
MS.809         	7.045          	0.01
MS.810         	7.03           	0.014
MS.811         	7.017          	0.012
MS.812         	7.003          	0.014
MS.813         	6.99           	0.01
MS.814         	6.975          	0.012
MS.815         	6.96           	0.01
MS.816         	6.947          	0.012
MS.817         	6.932          	0.014
MS.818         	6.92           	0.012
MS.819         	6.905          	0.01
MS.820         	6.892          	0.01
MS.821         	6.878          	0.01
MS.822         	6.865          	0.008
MS.823         	6.85           	0.012
DERIVED EXCITABILITY VARIABLES
Program = QTracP 3/4/2020
Threshold method = 6 (optimised for CAP, using data for present condition only)
SR method = 1 (using actual data values)
6.                 	0.000               	Peak response\(mV)
9.                 	33.3                	Temperature ( C)
17.                	66                  	Age (years)
18.                	1                   	Sex (M=1, F=2)

EXTRA VARIABLES

MScPeak(mV) = 5.39
MScS5(mA) = 11.13
MScS50(mA) = 20.88
MScS95(mA) = 31.85
MScNSteps = 4
MScSteps(%) = 9.4
MScStepMax(%) = 2.9
MScD50 = 61
MScSlope = 1.64
MSFPeakAmp(mV) = 5.39
MSFNUnits = 97
MSFMeanUnitAmp(uV) = 55.5
MSFHuntTime(m) = 4.26
MSFError(%) = 2.08
MSFNLarge = 25
MSFMedianAmp(%) = 0.806
MSFMedianAmp(mV) = 0.0434
MSFHalfAmpAmp(%) = 1.4
MSFHalfAmpAmp(mV) = 0.0755
MSFLargestAmp(%) = 4.65
MSFLargestAmp(mV) = 0.25
MSFMeanRS(%) = 1.99
MSFOpts = 10106121
MScDuration(min) = 7.8
MSFTraces = 779
MSFSizeLimit(uV) = 13.5
MSFLimitType = 1
MSFSmallestAmp(uV) = 14.6

EXTRA WAVEFORMS


!MScan Model
!97
	1	8.38	0.52	2
	2	8.79	0.63	2
	3	9.18	0.42	2
	4	9.47	0.29	2
	5	10.18	0.61	2
	6	10.44	0.55	2
	7	10.71	0.64	2
	8	10.99	0.54	2
	9	11.21	0.71	2
	10	11.68	1.35	2
	11	11.71	1.57	2
	12	11.9	1.72	2
	13	12.66	1.26	2
	14	12.76	0.78	2
	15	12.96	1.56	2
	16	13.13	1.46	2
	17	13.29	1.37	2
	18	13.52	1.07	2
	19	13.65	0.58	2
	20	13.71	0.27	2
	21	13.8	0.84	2
	22	13.93	0.99	2
	23	14.16	1.66	2
	24	14.45	1.28	2
	25	14.83	1.51	2
	26	14.96	0.6	2
	27	15.06	0.5	2
	28	15.6	1.42	2
	29	16.06	0.72	2
	30	16.97	0.99	2
	31	17.33	1.02	2
	32	17.72	4.65	1.6
	33	18.16	3.11	2
	34	18.39	0.7	2
	35	18.63	1.4	2
	36	19.27	0.71	2
	37	19.54	0.86	2
	38	19.66	0.38	2
	39	19.74	0.78	2
	40	19.84	1.02	2
	41	19.97	1.09	2
	42	20.22	1.66	2.4
	43	20.38	0.29	2
	44	20.58	1.96	2
	45	20.8	0.81	2
	46	20.9	0.69	2
	47	20.96	0.54	2
	48	21.09	0.62	2
	49	21.15	0.64	2
	50	21.4	1.5	2
	51	21.89	1.8	2
	52	22.3	0.9	2
	53	22.44	0.37	2
	54	22.54	0.38	2
	55	22.64	0.37	2
	56	23.32	1.08	2
	57	23.79	1.25	2
	58	25.02	1.24	2
	59	25.33	0.54	2
	60	25.88	1.09	2
	61	26	0.47	2
	62	26.08	0.41	2
	63	26.17	0.43	2
	64	26.26	0.35	2
	65	26.3	0.3	2
	66	26.34	0.34	2
	67	26.43	0.69	2
	68	26.88	2.03	2
	69	27.12	1.42	2
	70	27.22	0.76	2
	71	27.33	0.9	2
	72	27.44	1.15	2
	73	27.73	2.43	2
	74	27.88	1.75	2
	75	28.05	2.37	2
	76	28.31	2.29	2.2
	77	28.51	3.06	2
	78	28.79	2.62	2
	79	28.96	1.52	2
	80	29.12	1.56	2
	81	29.39	1.22	2
	82	29.93	1.97	2
	83	30.03	0.51	2
	84	30.21	0.41	2
	85	30.42	0.41	2
	86	30.72	0.76	2
	87	31.11	0.39	2
	88	31.32	0.32	2
	89	31.82	0.53	2
	90	32.04	0.36	2
	91	32.26	0.33	2
	92	32.41	0.39	2
	93	32.65	0.6	2
	94	32.75	0.36	2
	95	32.98	0.91	2
	96	33.31	0.94	2
	97	33.64	0.89	2

