File:              	C:\Qtrac\Data\Daniel M Sørensen\MScan multicentre study\Data from centres\Edmonton\MSCC00302A.QZD
Name:              	CA.EDM.NC.6.1
Protocol:          	MSCAN-R2
Date:              	2/3/20
Start time:        	12:50:50
Age:               	66
Sex:               	M
Temperature:       	33.1
S/R sites:         	Median Wr-APB
NC/disease:        	NC
Operator:          	KJ
Comments:
M-SCAN DATA (Repeat 2/2, 8-3.2m)
Scanpts: 31, 34, 463, 467
Stim. (mA)     	Amp. (mV)
MS.1           	31.5           	10.411
MS.2           	31.5           	10.373
MS.3           	31.5           	10.383
MS.4           	31.5           	10.258
MS.5           	31.5           	10.276
MS.6           	31.5           	10.375
MS.7           	31.5           	10.385
MS.8           	31.5           	10.383
MS.9           	31.5           	10.369
MS.10          	31.5           	10.361
MS.11          	31.5           	10.335
MS.12          	31.5           	10.337
MS.13          	31.5           	10.359
MS.14          	31.5           	10.329
MS.15          	31.5           	10.317
MS.16          	31.5           	10.317
MS.17          	31.5           	10.3
MS.18          	31.5           	10.319
MS.19          	31.5           	10.319
MS.20          	31.5           	10.335
MS.21          	31.5           	10.355
MS.22          	31.5           	10.383
MS.23          	31.5           	10.399
MS.24          	31.375         	10.393
MS.25          	31.312         	10.419
MS.26          	31.25          	10.431
MS.27          	31.188         	10.423
MS.28          	31.125         	10.427
MS.29          	31.062         	10.411
MS.30          	31             	10.464
MS.31          	30.938         	10.468
MS.32          	30.877         	10.486
MS.33          	30.815         	10.484
MS.34          	30.752         	10.482
MS.35          	30.692         	10.468
MS.36          	30.63          	10.447
MS.37          	30.57          	10.349
MS.38          	30.507         	10.46
MS.39          	30.448         	10.453
MS.40          	30.385         	10.453
MS.41          	30.325         	10.468
MS.42          	30.265         	10.373
MS.43          	30.205         	10.343
MS.44          	30.145         	10.423
MS.45          	30.085         	10.427
MS.46          	30.022         	10.417
MS.47          	29.962         	10.308
MS.48          	29.905         	10.417
MS.49          	29.845         	10.294
MS.50          	29.785         	10.403
MS.51          	29.725         	10.401
MS.52          	29.665         	10.306
MS.53          	29.608         	9.825
MS.54          	29.547         	10.317
MS.55          	29.487         	10.341
MS.56          	29.43          	9.863
MS.57          	29.37          	9.771
MS.58          	29.312         	10.004
MS.59          	29.252         	10.31
MS.60          	29.195         	10.331
MS.61          	29.137         	9.732
MS.62          	29.077         	9.912
MS.63          	29.02          	9.749
MS.64          	28.962         	9.829
MS.65          	28.905         	10.417
MS.66          	28.847         	9.926
MS.67          	28.79          	9.755
MS.68          	28.733         	9.787
MS.69          	28.675         	9.817
MS.70          	28.618         	9.833
MS.71          	28.56          	9.791
MS.72          	28.502         	9.738
MS.73          	28.445         	9.803
MS.74          	28.387         	9.714
MS.75          	28.332         	9.626
MS.76          	28.275         	9.608
MS.77          	28.22          	9.793
MS.78          	28.162         	9.587
MS.79          	28.105         	9.63
MS.80          	28.05          	9.753
MS.81          	27.995         	9.461
MS.82          	27.938         	9.38
MS.83          	27.882         	9.513
MS.84          	27.827         	9.567
MS.85          	27.77          	9.535
MS.86          	27.715         	9.557
MS.87          	27.66          	9.696
MS.88          	27.605         	9.376
MS.89          	27.55          	9.521
MS.90          	27.495         	9.515
MS.91          	27.44          	9.511
MS.92          	27.385         	9.358
MS.93          	27.33          	9.207
MS.94          	27.275         	9.35
MS.95          	27.22          	9.475
MS.96          	27.167         	9.11
MS.97          	27.112         	9.342
MS.98          	27.057         	9.414
MS.99          	27.005         	8.977
MS.100         	26.95          	9.146
MS.101         	26.897         	9.277
MS.102         	26.842         	9.223
MS.103         	26.79          	9.211
MS.104         	26.735         	9.029
MS.105         	26.682         	8.741
MS.106         	26.627         	9.217
MS.107         	26.575         	8.87
MS.108         	26.522         	9.046
MS.109         	26.47          	8.631
MS.110         	26.417         	8.941
MS.111         	26.362         	8.48
MS.112         	26.31          	8.498
MS.113         	26.257         	8.927
MS.114         	26.205         	8.492
MS.115         	26.153         	8.711
MS.116         	26.102         	8.488
MS.117         	26.05          	8.488
MS.118         	25.997         	8.492
MS.119         	25.945         	8.312
MS.120         	25.892         	8.617
MS.121         	25.842         	8.492
MS.122         	25.79          	8.484
MS.123         	25.737         	8.671
MS.124         	25.688         	8.318
MS.125         	25.635         	8.459
MS.126         	25.585         	8.302
MS.127         	25.532         	8.282
MS.128         	25.483         	8.222
MS.129         	25.432         	8.254
MS.130         	25.38          	8.286
MS.131         	25.33          	8.286
MS.132         	25.28          	8.159
MS.133         	25.23          	8.188
MS.134         	25.177         	8.184
MS.135         	25.127         	8.043
MS.136         	25.077         	8.135
MS.137         	25.028         	8.155
MS.138         	24.977         	8.051
MS.139         	24.927         	8.141
MS.140         	24.877         	8.123
MS.141         	24.827         	8.123
MS.142         	24.78          	8.063
MS.143         	24.73          	8.045
MS.144         	24.68          	8.147
MS.145         	24.63          	8.034
MS.146         	24.582         	7.978
MS.147         	24.532         	8.004
MS.148         	24.483         	8.006
MS.149         	24.435         	8.024
MS.150         	24.385         	7.831
MS.151         	24.337         	8.008
MS.152         	24.288         	8.002
MS.153         	24.24          	7.791
MS.154         	24.19          	7.843
MS.155         	24.142         	8.022
MS.156         	24.095         	7.833
MS.157         	24.047         	7.855
MS.158         	23.997         	7.896
MS.159         	23.95          	7.839
MS.160         	23.903         	7.781
MS.161         	23.855         	7.841
MS.162         	23.807         	7.809
MS.163         	23.76          	7.624
MS.164         	23.712         	6.832
MS.165         	23.665         	7.841
MS.166         	23.618         	7.748
MS.167         	23.57          	7.158
MS.168         	23.522         	7.644
MS.169         	23.475         	6.88
MS.170         	23.43          	6.786
MS.171         	23.382         	7.601
MS.172         	23.335         	6.703
MS.173         	23.29          	6.894
MS.174         	23.243         	6.711
MS.175         	23.195         	6.751
MS.176         	23.15          	6.77
MS.177         	23.102         	7.275
MS.178         	23.057         	6.743
MS.179         	23.012         	6.494
MS.180         	22.965         	6.574
MS.181         	22.92          	6.469
MS.182         	22.872         	6.635
MS.183         	22.827         	6.534
MS.184         	22.782         	6.365
MS.185         	22.737         	6.465
MS.186         	22.692         	6.226
MS.187         	22.645         	6.294
MS.188         	22.6           	6.101
MS.189         	22.555         	5.756
MS.190         	22.51          	6.055
MS.191         	22.465         	6
MS.192         	22.42          	6.099
MS.193         	22.375         	5.793
MS.194         	22.332         	6.049
MS.195         	22.288         	5.938
MS.196         	22.243         	6.061
MS.197         	22.198         	5.781
MS.198         	22.153         	5.815
MS.199         	22.11          	5.716
MS.200         	22.065         	5.591
MS.201         	22.02          	5.577
MS.202         	21.977         	5.35
MS.203         	21.932         	5.368
MS.204         	21.89          	5.392
MS.205         	21.845         	5.402
MS.206         	21.802         	5.428
MS.207         	21.757         	5.38
MS.208         	21.715         	5.495
MS.209         	21.672         	5.499
MS.210         	21.627         	4.834
MS.211         	21.585         	5.209
MS.212         	21.542         	5.464
MS.213         	21.497         	5.148
MS.214         	21.455         	5.126
MS.215         	21.413         	5.009
MS.216         	21.37          	4.81
MS.217         	21.327         	4.778
MS.218         	21.285         	4.868
MS.219         	21.243         	4.455
MS.220         	21.2           	5.164
MS.221         	21.157         	4.81
MS.222         	21.115         	4.965
MS.223         	21.073         	4.759
MS.224         	21.03          	4.339
MS.225         	20.99          	4.56
MS.226         	20.948         	4.437
MS.227         	20.905         	4.252
MS.228         	20.862         	4.447
MS.229         	20.823         	4.614
MS.230         	20.78          	4.457
MS.231         	20.737         	4.145
MS.232         	20.698         	4.238
MS.233         	20.655         	4.367
MS.234         	20.615         	4.49
MS.235         	20.573         	3.954
MS.236         	20.532         	4.006
MS.237         	20.49          	3.698
MS.238         	20.45          	3.797
MS.239         	20.41          	4.214
MS.240         	20.368         	3.736
MS.241         	20.327         	3.996
MS.242         	20.288         	3.38
MS.243         	20.247         	3.547
MS.244         	20.205         	3.575
MS.245         	20.165         	3.648
MS.246         	20.125         	3.543
MS.247         	20.085         	3.287
MS.248         	20.045         	3.229
MS.249         	20.005         	3.217
MS.250         	19.965         	3.47
MS.251         	19.925         	3.055
MS.252         	19.885         	3.241
MS.253         	19.845         	3.019
MS.254         	19.805         	3.261
MS.255         	19.767         	2.969
MS.256         	19.727         	3.015
MS.257         	19.688         	3.037
MS.258         	19.647         	3.019
MS.259         	19.61          	2.9
MS.260         	19.57          	2.856
MS.261         	19.53          	2.78
MS.262         	19.493         	2.927
MS.263         	19.452         	2.896
MS.264         	19.415         	2.705
MS.265         	19.375         	2.641
MS.266         	19.337         	2.834
MS.267         	19.297         	2.312
MS.268         	19.26          	2.862
MS.269         	19.22          	2.657
MS.270         	19.182         	2.741
MS.271         	19.145         	2.498
MS.272         	19.105         	2.677
MS.273         	19.067         	2.328
MS.274         	19.03          	2.417
MS.275         	18.993         	2.387
MS.276         	18.952         	2.125
MS.277         	18.915         	2.34
MS.278         	18.877         	2.312
MS.279         	18.84          	2.361
MS.280         	18.802         	2.298
MS.281         	18.765         	2.214
MS.282         	18.727         	2.131
MS.283         	18.69          	2.208
MS.284         	18.653         	2.214
MS.285         	18.615         	1.948
MS.286         	18.577         	2.218
MS.287         	18.54          	2.107
MS.288         	18.505         	2.127
MS.289         	18.467         	2.042
MS.290         	18.43          	2.01
MS.291         	18.392         	2.034
MS.292         	18.358         	1.873
MS.293         	18.32          	1.893
MS.294         	18.282         	1.77
MS.295         	18.247         	1.73
MS.296         	18.21          	1.793
MS.297         	18.175         	1.714
MS.298         	18.137         	1.845
MS.299         	18.102         	1.807
MS.300         	18.065         	1.488
MS.301         	18.03          	1.541
MS.302         	17.993         	1.907
MS.303         	17.958         	1.64
MS.304         	17.922         	1.523
MS.305         	17.885         	1.597
MS.306         	17.85          	1.762
MS.307         	17.815         	1.539
MS.308         	17.778         	1.458
MS.309         	17.743         	1.464
MS.310         	17.708         	1.287
MS.311         	17.672         	1.408
MS.312         	17.637         	1.277
MS.313         	17.602         	1.499
MS.314         	17.567         	1.323
MS.315         	17.532         	1.154
MS.316         	17.497         	1.15
MS.317         	17.462         	1.096
MS.318         	17.427         	1.194
MS.319         	17.392         	1.211
MS.320         	17.358         	1.251
MS.321         	17.323         	1.074
MS.322         	17.288         	1.065
MS.323         	17.253         	1.09
MS.324         	17.217         	1.106
MS.325         	17.185         	1.1
MS.326         	17.15          	1.037
MS.327         	17.115         	1.049
MS.328         	17.083         	1.033
MS.329         	17.047         	1.16
MS.330         	17.012         	1.023
MS.331         	16.98          	1.041
MS.332         	16.945         	0.995
MS.333         	16.913         	1.057
MS.334         	16.878         	0.993
MS.335         	16.845         	0.985
MS.336         	16.81          	1.025
MS.337         	16.778         	0.967
MS.338         	16.743         	0.995
MS.339         	16.71          	0.985
MS.340         	16.677         	1.023
MS.341         	16.642         	0.995
MS.342         	16.61          	0.985
MS.343         	16.577         	0.947
MS.344         	16.542         	0.961
MS.345         	16.51          	0.945
MS.346         	16.477         	0.906
MS.347         	16.445         	0.922
MS.348         	16.413         	0.945
MS.349         	16.38          	0.912
MS.350         	16.345         	0.937
MS.351         	16.312         	0.771
MS.352         	16.28          	0.767
MS.353         	16.247         	0.941
MS.354         	16.215         	0.914
MS.355         	16.182         	0.743
MS.356         	16.15          	0.808
MS.357         	16.12          	0.844
MS.358         	16.087         	0.719
MS.359         	16.055         	0.806
MS.360         	16.022         	0.651
MS.361         	15.99          	0.653
MS.362         	15.957         	0.691
MS.363         	15.927         	0.667
MS.364         	15.895         	0.713
MS.365         	15.862         	0.552
MS.366         	15.832         	0.546
MS.367         	15.8           	0.602
MS.368         	15.767         	0.433
MS.369         	15.737         	0.663
MS.370         	15.705         	0.63
MS.371         	15.672         	0.618
MS.372         	15.642         	0.512
MS.373         	15.61          	0.534
MS.374         	15.58          	0.695
MS.375         	15.55          	0.409
MS.376         	15.517         	0.544
MS.377         	15.487         	0.52
MS.378         	15.455         	0.389
MS.379         	15.425         	0.457
MS.380         	15.395         	0.435
MS.381         	15.362         	0.403
MS.382         	15.332         	0.379
MS.383         	15.302         	0.387
MS.384         	15.273         	0.381
MS.385         	15.24          	0.433
MS.386         	15.21          	0.35
MS.387         	15.18          	0.449
MS.388         	15.15          	0.381
MS.389         	15.12          	0.322
MS.390         	15.09          	0.369
MS.391         	15.06          	0.318
MS.392         	15.03          	0.306
MS.393         	15             	0.294
MS.394         	14.97          	0.375
MS.395         	14.94          	0.314
MS.396         	14.91          	0.306
MS.397         	14.88          	0.318
MS.398         	14.85          	0.359
MS.399         	14.82          	0.3
MS.400         	14.79          	0.3
MS.401         	14.76          	0.3
MS.402         	14.733         	0.318
MS.403         	14.702         	0.296
MS.404         	14.672         	0.302
MS.405         	14.642         	0.296
MS.406         	14.615         	0.3
MS.407         	14.585         	0.308
MS.408         	14.555         	0.298
MS.409         	14.527         	0.304
MS.410         	14.497         	0.292
MS.411         	14.467         	0.312
MS.412         	14.44          	0.288
MS.413         	14.41          	0.286
MS.414         	14.382         	0.298
MS.415         	14.352         	0.32
MS.416         	14.325         	0.296
MS.417         	14.295         	0.314
MS.418         	14.267         	0.298
MS.419         	14.24          	0.304
MS.420         	14.21          	0.296
MS.421         	14.182         	0.304
MS.422         	14.155         	0.3
MS.423         	14.125         	0.306
MS.424         	14.097         	0.296
MS.425         	14.07          	0.304
MS.426         	14.04          	0.038
MS.427         	14.012         	0.3
MS.428         	13.985         	0.026
MS.429         	13.957         	0.29
MS.430         	13.93          	0.018
MS.431         	13.903         	0.052
MS.432         	13.872         	0.046
MS.433         	13.845         	0.028
MS.434         	13.818         	0.058
MS.435         	13.79          	0.31
MS.436         	13.762         	0.052
MS.437         	13.735         	0.298
MS.438         	13.707         	0.022
MS.439         	13.68          	0.044
MS.440         	13.653         	0.044
MS.441         	13.625         	0.038
MS.442         	13.6           	0.04
MS.443         	13.572         	0.032
MS.444         	13.545         	0.04
MS.445         	13.517         	0.036
MS.446         	13.49          	0.038
MS.447         	13.462         	0.042
MS.448         	13.438         	0.026
MS.449         	13.41          	0.042
MS.450         	13.382         	0.034
MS.451         	13.358         	0.04
MS.452         	13.33          	0.038
MS.453         	13.302         	0.032
MS.454         	13.278         	0.03
MS.455         	13.25          	0.036
MS.456         	13.222         	0.032
MS.457         	13.197         	0.036
MS.458         	13.17          	0.048
MS.459         	13.145         	0.032
MS.460         	13.117         	0.028
MS.461         	13.092         	0.028
MS.462         	13.065         	0.03
MS.463         	13.04          	0.028
MS.464         	13.012         	0.026
MS.465         	12.987         	0.028
MS.466         	12.962         	0.028
MS.467         	12.935         	0.036
MS.468         	12.91          	0.03
MS.469         	12.885         	0.028
MS.470         	12.858         	0.032
MS.471         	12.832         	0.03
MS.472         	12.807         	0.034
MS.473         	12.782         	0.028
MS.474         	12.755         	0.028
MS.475         	12.73          	0.028
MS.476         	12.705         	0.028
MS.477         	12.68          	0.038
MS.478         	12.655         	0.028
MS.479         	12.63          	0.026
MS.480         	12.602         	0.028
MS.481         	12.577         	0.028
MS.482         	12.552         	0.014
MS.483         	12.528         	0.028
MS.484         	12.502         	0.032
MS.485         	12.477         	0.01
MS.486         	12.452         	0.02
MS.487         	12.427         	0.022
MS.488         	12.403         	0.036
MS.489         	12.38          	0.032
MS.490         	12.355         	0.03
MS.491         	12.33          	0.032
MS.492         	12.305         	0.024
MS.493         	12.28          	0.026
MS.494         	12.255         	0.028
MS.495         	12.23          	0.024
MS.496         	12.207         	0.02
MS.497         	12.182         	0.024
MS.498         	12.157         	0.016
MS.499         	12.132         	0.038
MS.500         	12.11          	0.02
MS.501         	12.085         	0.014
MS.502         	12.06          	0.014
MS.503         	12.037         	0.016
MS.504         	12.012         	0.014
MS.505         	11.99          	0.014
MS.506         	11.965         	0.02
MS.507         	11.94          	0.03
MS.508         	11.917         	0.022
MS.509         	11.892         	0.02
MS.510         	11.87          	0.018
MS.511         	11.845         	0.03
MS.512         	11.822         	0.024
MS.513         	11.797         	0.016
MS.514         	11.775         	0.022
MS.515         	11.752         	0.01
MS.516         	11.727         	0.016
MS.517         	11.705         	0.046
MS.518         	11.682         	0.026
MS.519         	11.657         	0.022
MS.520         	11.635         	0.02
MS.521         	11.613         	0.024
MS.522         	11.587         	0.022
MS.523         	11.565         	0.014
MS.524         	11.542         	0.008
DERIVED EXCITABILITY VARIABLES
Program = QTracP 3/4/2020
Threshold method = 6 (optimised for CAP, using data for present condition only)
SR method = 1 (using actual data values)
6.                 	0.000               	Peak response\(mV)
9.                 	33.1                	Temperature ( C)
17.                	66                  	Age (years)
18.                	1                   	Sex (M=1, F=2)

EXTRA VARIABLES

MScPeak(mV) = 10.32
MScS5(mA) = 15.63
MScS50(mA) = 21.43
MScS95(mA) = 29.01
MScNSteps = 2
MScSteps(%) = 4.7
MScStepMax(%) = 2.5
MScD50 = 49
MScSlope = 4.76
MSFPeakAmp(mV) = 10.5
MSFNUnits = 102
MSFMeanUnitAmp(uV) = 102.5
MSFHuntTime(m) = 3.1
MSFError(%) = 4.65
MSFNLarge = 22.28
MSFMedianAmp(%) = 0.643
MSFMedianAmp(mV) = 0.0672
MSFHalfAmpAmp(%) = 1.21
MSFHalfAmpAmp(mV) = 0.127
MSFLargestAmp(%) = 8.03
MSFLargestAmp(mV) = 0.839
MSFMeanRS(%) = 2.09
MSFOpts = 10106121
MSFTraces = 437
MSFSizeLimit(uV) = 26.1
MSFLimitType = 1
MSFSmallestAmp(uV) = 28.4

EXTRA WAVEFORMS


!MScan Model
!102
	1	14.09	2.57	2
	2	15.05	0.44	2
	3	15.29	0.61	2
	4	15.42	0.65	2
	5	15.78	1.19	2
	6	15.91	0.52	2
	7	16	0.5	2
	8	16.06	0.42	2
	9	16.16	0.46	2
	10	16.3	0.68	2
	11	16.4	0.4	2
	12	16.5	0.3	2
	13	16.78	0.64	2
	14	16.96	0.33	2
	15	17.2	0.58	2
	16	17.36	0.4	2
	17	17.47	0.8	2
	18	17.53	0.38	2
	19	17.58	0.37	2
	20	17.63	0.45	2
	21	17.82	1.75	2
	22	18.06	1.66	2
	23	18.2	0.99	2
	24	18.26	0.41	2
	25	18.31	0.42	2
	26	18.36	0.42	2
	27	18.42	0.52	2
	28	18.48	0.58	2
	29	18.54	0.48	2
	30	18.68	0.95	2
	31	18.79	0.52	2
	32	18.87	0.61	2
	33	18.94	0.68	2
	34	19.08	0.93	2
	35	19.28	2	2
	36	19.45	1.16	2
	37	19.55	0.75	2
	38	19.62	0.76	2
	39	19.7	0.73	2
	40	19.76	0.59	2
	41	19.83	0.54	2
	42	19.89	0.62	2
	43	19.96	0.67	2
	44	20.02	0.54	2
	45	20.09	0.75	2
	46	20.17	1.06	2
	47	20.27	1.23	2
	48	20.37	1.18	2
	49	20.46	1.5	2
	50	20.55	1.39	2
	51	20.64	0.93	2
	52	20.75	1.25	2
	53	20.86	1.64	2
	54	21	1.66	2
	55	21.36	3.32	2
	56	21.47	0.95	2
	57	21.66	2.09	2
	58	21.84	1.17	2
	59	21.89	0.57	2
	60	21.94	0.66	2
	61	21.99	0.53	2
	62	22.03	0.49	2
	63	22.08	0.41	2
	64	22.13	0.27	2
	65	22.17	0.39	2
	66	22.22	0.54	2
	67	22.32	1.12	2
	68	22.43	1.09	2
	69	22.48	0.33	2
	70	22.52	0.33	2
	71	22.57	0.34	2
	72	22.61	0.36	2
	73	22.66	0.57	2
	74	22.71	0.65	2
	75	22.79	1.1	2
	76	22.87	1.68	2
	77	23.19	2.52	2
	78	23.72	8.03	3.1
	79	24.31	1.76	2
	80	24.44	0.41	2
	81	24.56	0.33	2
	82	24.69	0.44	2
	83	24.89	0.45	2
	84	25.3	0.37	2
	85	25.4	0.55	2
	86	25.44	0.61	2
	87	25.54	0.79	2
	88	26.02	1.82	2
	89	26.15	0.44	2
	90	26.28	1.21	2
	91	26.41	1.02	2
	92	26.57	1.3	2
	93	26.83	1.72	2
	94	27.14	1.78	2
	95	27.34	0.93	2
	96	27.97	1.99	2
	97	28.15	0.41	2
	98	28.29	0.54	2
	99	28.43	0.47	2
	100	29.46	4.99	2
	101	30.28	0.95	2
	102	30.28	0.64	2

