File:              	C:\Qtrac\Data\Daniel M Sørensen\MScan multicentre study\Data from centres\Edmonton\Processed data\MSCC00921C.QZD
Name:              	CA.EDM.NC.7.1
Protocol:          	MSCAN-R2
Date:              	21/9/20
Start time:        	15:47:57
Age:               	75
Sex:               	M
Temperature:       	33.4
S/R sites:         	TA
NC/disease:        	NC
Operator:          	KJ
Comments:
M-SCAN DATA (12.5-2m)
Scanpts: 230, 249, 952, 961
Stim. (mA)     	Amp. (mV)
MS.1           	25             	6.264
MS.2           	25             	6.264
MS.3           	25             	6.272
MS.4           	25             	6.252
MS.5           	25             	6.258
MS.6           	25             	6.268
MS.7           	25             	6.25
MS.8           	25             	6.248
MS.9           	25             	6.254
MS.10          	25             	6.258
MS.11          	25             	6.252
MS.12          	25             	6.264
MS.13          	25             	6.26
MS.14          	25             	6.266
MS.15          	25             	6.266
MS.16          	25             	6.254
MS.17          	25             	6.276
MS.18          	25             	6.274
MS.19          	25             	6.276
MS.20          	25             	6.276
MS.21          	25             	6.274
MS.22          	25             	6.278
MS.23          	25             	6.292
MS.24          	24.9           	6.27
MS.25          	24.85          	6.276
MS.26          	24.8           	6.278
MS.27          	24.75          	6.282
MS.28          	24.702         	6.286
MS.29          	24.653         	6.29
MS.30          	24.602         	6.292
MS.31          	24.555         	6.288
MS.32          	24.505         	6.306
MS.33          	24.455         	6.29
MS.34          	24.407         	6.292
MS.35          	24.358         	6.302
MS.36          	24.31          	6.286
MS.37          	24.26          	6.288
MS.38          	24.212         	6.304
MS.39          	24.165         	6.288
MS.40          	24.115         	6.306
MS.41          	24.067         	6.298
MS.42          	24.02          	6.292
MS.43          	23.972         	6.3
MS.44          	23.925         	6.316
MS.45          	23.875         	6.316
MS.46          	23.827         	6.304
MS.47          	23.78          	6.318
MS.48          	23.733         	6.31
MS.49          	23.685         	6.318
MS.50          	23.637         	6.31
MS.51          	23.59          	6.314
MS.52          	23.545         	6.316
MS.53          	23.497         	6.328
MS.54          	23.45          	6.308
MS.55          	23.403         	6.316
MS.56          	23.358         	6.322
MS.57          	23.31          	6.32
MS.58          	23.262         	6.322
MS.59          	23.217         	6.328
MS.60          	23.17          	6.32
MS.61          	23.125         	6.333
MS.62          	23.077         	6.345
MS.63          	23.032         	6.331
MS.64          	22.985         	6.345
MS.65          	22.94          	6.337
MS.66          	22.895         	6.333
MS.67          	22.847         	6.335
MS.68          	22.802         	6.337
MS.69          	22.757         	6.345
MS.70          	22.712         	6.349
MS.71          	22.665         	6.353
MS.72          	22.62          	6.341
MS.73          	22.575         	6.349
MS.74          	22.53          	6.322
MS.75          	22.485         	6.345
MS.76          	22.44          	6.347
MS.77          	22.395         	6.347
MS.78          	22.35          	6.349
MS.79          	22.307         	6.341
MS.80          	22.262         	6.351
MS.81          	22.217         	6.353
MS.82          	22.172         	6.335
MS.83          	22.127         	6.361
MS.84          	22.085         	6.347
MS.85          	22.04          	6.347
MS.86          	21.995         	6.353
MS.87          	21.952         	6.357
MS.88          	21.907         	6.351
MS.89          	21.865         	6.355
MS.90          	21.82          	6.341
MS.91          	21.778         	6.355
MS.92          	21.735         	6.349
MS.93          	21.69          	6.361
MS.94          	21.647         	6.363
MS.95          	21.605         	6.345
MS.96          	21.56          	6.359
MS.97          	21.517         	6.355
MS.98          	21.475         	6.361
MS.99          	21.432         	6.367
MS.100         	21.39          	6.371
MS.101         	21.345         	6.359
MS.102         	21.302         	6.367
MS.103         	21.26          	6.369
MS.104         	21.217         	6.363
MS.105         	21.175         	6.361
MS.106         	21.135         	6.363
MS.107         	21.092         	6.377
MS.108         	21.05          	6.363
MS.109         	21.007         	6.383
MS.110         	20.965         	6.391
MS.111         	20.922         	6.381
MS.112         	20.882         	6.393
MS.113         	20.84          	6.381
MS.114         	20.797         	6.381
MS.115         	20.757         	6.385
MS.116         	20.715         	6.377
MS.117         	20.675         	6.383
MS.118         	20.632         	6.391
MS.119         	20.592         	6.383
MS.120         	20.55          	6.393
MS.121         	20.51          	6.391
MS.122         	20.467         	6.379
MS.123         	20.427         	6.377
MS.124         	20.387         	6.383
MS.125         	20.345         	6.391
MS.126         	20.305         	6.383
MS.127         	20.265         	6.383
MS.128         	20.225         	6.391
MS.129         	20.182         	6.373
MS.130         	20.142         	6.379
MS.131         	20.102         	6.381
MS.132         	20.062         	6.389
MS.133         	20.022         	6.393
MS.134         	19.983         	6.381
MS.135         	19.942         	6.383
MS.136         	19.903         	6.395
MS.137         	19.862         	6.391
MS.138         	19.823         	6.397
MS.139         	19.785         	6.401
MS.140         	19.745         	6.399
MS.141         	19.705         	6.387
MS.142         	19.665         	6.389
MS.143         	19.627         	6.405
MS.144         	19.587         	6.413
MS.145         	19.547         	6.415
MS.146         	19.51          	6.417
MS.147         	19.47          	6.415
MS.148         	19.43          	6.423
MS.149         	19.392         	6.415
MS.150         	19.352         	6.415
MS.151         	19.315         	6.399
MS.152         	19.275         	6.417
MS.153         	19.237         	6.415
MS.154         	19.2           	6.405
MS.155         	19.16          	6.423
MS.156         	19.122         	6.407
MS.157         	19.085         	6.415
MS.158         	19.047         	6.419
MS.159         	19.007         	6.415
MS.160         	18.97          	6.417
MS.161         	18.932         	6.425
MS.162         	18.895         	6.409
MS.163         	18.858         	6.415
MS.164         	18.82          	6.415
MS.165         	18.782         	6.417
MS.166         	18.745         	6.431
MS.167         	18.708         	6.427
MS.168         	18.67          	6.431
MS.169         	18.632         	6.435
MS.170         	18.595         	6.423
MS.171         	18.557         	6.421
MS.172         	18.52          	6.433
MS.173         	18.483         	6.437
MS.174         	18.448         	6.419
MS.175         	18.41          	6.435
MS.176         	18.372         	6.435
MS.177         	18.335         	6.431
MS.178         	18.3           	6.431
MS.179         	18.262         	6.421
MS.180         	18.227         	6.425
MS.181         	18.19          	6.433
MS.182         	18.153         	6.437
MS.183         	18.118         	6.415
MS.184         	18.08          	6.425
MS.185         	18.045         	6.431
MS.186         	18.01          	6.445
MS.187         	17.972         	6.453
MS.188         	17.938         	6.457
MS.189         	17.903         	6.461
MS.190         	17.865         	6.451
MS.191         	17.83          	6.455
MS.192         	17.795         	6.453
MS.193         	17.757         	6.447
MS.194         	17.722         	6.453
MS.195         	17.688         	6.447
MS.196         	17.653         	6.457
MS.197         	17.618         	6.449
MS.198         	17.583         	6.443
MS.199         	17.547         	6.449
MS.200         	17.512         	6.435
MS.201         	17.477         	6.457
MS.202         	17.442         	6.455
MS.203         	17.407         	6.449
MS.204         	17.372         	6.433
MS.205         	17.337         	6.445
MS.206         	17.302         	6.461
MS.207         	17.267         	6.431
MS.208         	17.235         	6.439
MS.209         	17.2           	6.437
MS.210         	17.165         	6.447
MS.211         	17.13          	6.437
MS.212         	17.097         	6.445
MS.213         	17.062         	6.439
MS.214         	17.028         	6.457
MS.215         	16.995         	6.469
MS.216         	16.96          	6.453
MS.217         	16.927         	6.463
MS.218         	16.892         	6.461
MS.219         	16.86          	6.455
MS.220         	16.825         	6.461
MS.221         	16.792         	6.474
MS.222         	16.757         	6.461
MS.223         	16.725         	6.445
MS.224         	16.69          	6.459
MS.225         	16.657         	6.467
MS.226         	16.625         	6.459
MS.227         	16.59          	6.469
MS.228         	16.557         	6.474
MS.229         	16.525         	6.459
MS.230         	16.493         	6.455
MS.231         	16.46          	6.459
MS.232         	16.425         	6.471
MS.233         	16.392         	6.453
MS.234         	16.36          	6.455
MS.235         	16.327         	6.457
MS.236         	16.295         	6.453
MS.237         	16.262         	6.443
MS.238         	16.23          	6.461
MS.239         	16.198         	6.445
MS.240         	16.165         	6.478
MS.241         	16.132         	6.459
MS.242         	16.1           	6.451
MS.243         	16.067         	6.461
MS.244         	16.038         	6.453
MS.245         	16.005         	6.461
MS.246         	15.972         	6.455
MS.247         	15.94          	6.474
MS.248         	15.91          	6.465
MS.249         	15.877         	6.455
MS.250         	15.845         	6.461
MS.251         	15.812         	6.447
MS.252         	15.782         	6.465
MS.253         	15.75          	6.463
MS.254         	15.72          	6.459
MS.255         	15.688         	6.471
MS.256         	15.657         	6.459
MS.257         	15.625         	6.467
MS.258         	15.595         	6.453
MS.259         	15.562         	6.453
MS.260         	15.532         	6.461
MS.261         	15.5           	6.455
MS.262         	15.47          	6.465
MS.263         	15.438         	6.441
MS.264         	15.407         	6.451
MS.265         	15.377         	6.457
MS.266         	15.347         	6.469
MS.267         	15.315         	6.447
MS.268         	15.285         	6.455
MS.269         	15.255         	6.228
MS.270         	15.225         	6.449
MS.271         	15.193         	6.453
MS.272         	15.162         	6.469
MS.273         	15.132         	6.459
MS.274         	15.102         	6.228
MS.275         	15.072         	6.447
MS.276         	15.042         	6.238
MS.277         	15.012         	6.216
MS.278         	14.983         	6.232
MS.279         	14.952         	6.228
MS.280         	14.922         	6.214
MS.281         	14.892         	6.218
MS.282         	14.862         	6.226
MS.283         	14.832         	6.232
MS.284         	14.802         	6.228
MS.285         	14.775         	6.232
MS.286         	14.745         	6.236
MS.287         	14.715         	6.266
MS.288         	14.685         	6.238
MS.289         	14.657         	6.248
MS.290         	14.627         	6.26
MS.291         	14.597         	6.252
MS.292         	14.568         	6.25
MS.293         	14.54          	6.248
MS.294         	14.51          	6.26
MS.295         	14.483         	6.252
MS.296         	14.452         	6.242
MS.297         	14.422         	6.268
MS.298         	14.395         	6.256
MS.299         	14.365         	6.25
MS.300         	14.337         	6.25
MS.301         	14.31          	6.258
MS.302         	14.28          	6.248
MS.303         	14.252         	6.264
MS.304         	14.222         	6.26
MS.305         	14.195         	6.254
MS.306         	14.167         	6.264
MS.307         	14.137         	6.258
MS.308         	14.11          	6.258
MS.309         	14.082         	6.266
MS.310         	14.052         	6.27
MS.311         	14.025         	6.264
MS.312         	13.997         	6.268
MS.313         	13.97          	6.258
MS.314         	13.943         	6.252
MS.315         	13.912         	6.25
MS.316         	13.885         	6.258
MS.317         	13.858         	6.252
MS.318         	13.83          	6.256
MS.319         	13.802         	6.248
MS.320         	13.775         	6.252
MS.321         	13.747         	6.256
MS.322         	13.72          	6.258
MS.323         	13.693         	6.25
MS.324         	13.665         	6.256
MS.325         	13.637         	6.224
MS.326         	13.61          	6.262
MS.327         	13.582         	6.262
MS.328         	13.557         	6.262
MS.329         	13.53          	6.228
MS.330         	13.502         	6.262
MS.331         	13.475         	6.266
MS.332         	13.447         	6.216
MS.333         	13.422         	6.264
MS.334         	13.395         	6.25
MS.335         	13.367         	6.22
MS.336         	13.342         	6.222
MS.337         	13.315         	6.268
MS.338         	13.287         	6.254
MS.339         	13.262         	6.21
MS.340         	13.235         	6.212
MS.341         	13.207         	6.216
MS.342         	13.182         	6.254
MS.343         	13.155         	6.208
MS.344         	13.13          	6.202
MS.345         	13.102         	6.2
MS.346         	13.077         	6.206
MS.347         	13.05          	6.21
MS.348         	13.025         	6.208
MS.349         	13             	6.208
MS.350         	12.972         	6.202
MS.351         	12.947         	6.185
MS.352         	12.92          	6.196
MS.353         	12.895         	6.181
MS.354         	12.87          	6.204
MS.355         	12.845         	6.188
MS.356         	12.818         	6.188
MS.357         	12.792         	6.175
MS.358         	12.767         	6.177
MS.359         	12.742         	6.173
MS.360         	12.715         	6.177
MS.361         	12.69          	6.173
MS.362         	12.665         	6.175
MS.363         	12.64          	6.149
MS.364         	12.615         	6.159
MS.365         	12.59          	6.179
MS.366         	12.565         	6.149
MS.367         	12.54          	6.151
MS.368         	12.515         	6.149
MS.369         	12.49          	6.149
MS.370         	12.465         	6.079
MS.371         	12.44          	6.165
MS.372         	12.415         	6.101
MS.373         	12.39          	6.143
MS.374         	12.365         	6.107
MS.375         	12.34          	6.006
MS.376         	12.315         	5.988
MS.377         	12.29          	5.996
MS.378         	12.267         	6.026
MS.379         	12.242         	5.986
MS.380         	12.217         	6.089
MS.381         	12.193         	5.992
MS.382         	12.17          	5.968
MS.383         	12.145         	6.016
MS.384         	12.12          	5.964
MS.385         	12.095         	5.97
MS.386         	12.072         	5.968
MS.387         	12.047         	5.98
MS.388         	12.023         	5.974
MS.389         	12             	5.974
MS.390         	11.975         	5.978
MS.391         	11.952         	5.968
MS.392         	11.927         	6.014
MS.393         	11.905         	5.974
MS.394         	11.88          	5.972
MS.395         	11.858         	5.986
MS.396         	11.832         	5.964
MS.397         	11.81          	5.982
MS.398         	11.785         	5.992
MS.399         	11.762         	5.946
MS.400         	11.738         	5.976
MS.401         	11.715         	5.986
MS.402         	11.693         	5.954
MS.403         	11.667         	5.74
MS.404         	11.645         	5.74
MS.405         	11.622         	5.974
MS.406         	11.597         	5.976
MS.407         	11.575         	5.72
MS.408         	11.552         	5.976
MS.409         	11.53          	5.946
MS.410         	11.505         	5.722
MS.411         	11.483         	5.692
MS.412         	11.46          	5.978
MS.413         	11.438         	5.716
MS.414         	11.415         	5.708
MS.415         	11.392         	5.718
MS.416         	11.37          	5.696
MS.417         	11.345         	5.682
MS.418         	11.322         	5.666
MS.419         	11.3           	5.684
MS.420         	11.278         	5.684
MS.421         	11.255         	5.686
MS.422         	11.233         	5.692
MS.423         	11.21          	5.682
MS.424         	11.188         	5.676
MS.425         	11.165         	5.68
MS.426         	11.142         	5.69
MS.427         	11.122         	5.67
MS.428         	11.1           	5.912
MS.429         	11.077         	5.666
MS.430         	11.055         	5.67
MS.431         	11.032         	5.658
MS.432         	11.01          	5.66
MS.433         	10.988         	5.676
MS.434         	10.967         	5.688
MS.435         	10.945         	5.668
MS.436         	10.922         	5.648
MS.437         	10.9           	5.68
MS.438         	10.88          	5.646
MS.439         	10.858         	5.652
MS.440         	10.835         	5.656
MS.441         	10.815         	5.682
MS.442         	10.792         	5.66
MS.443         	10.77          	5.662
MS.444         	10.75          	5.64
MS.445         	10.727         	5.537
MS.446         	10.707         	5.658
MS.447         	10.685         	5.662
MS.448         	10.665         	5.622
MS.449         	10.642         	5.624
MS.450         	10.622         	5.477
MS.451         	10.6           	5.541
MS.452         	10.58          	5.37
MS.453         	10.557         	5.541
MS.454         	10.537         	5.523
MS.455         	10.515         	5.553
MS.456         	10.495         	5.523
MS.457         	10.472         	5.386
MS.458         	10.452         	5.62
MS.459         	10.432         	5.503
MS.460         	10.41          	5.362
MS.461         	10.39          	5.392
MS.462         	10.37          	5.444
MS.463         	10.35          	5.525
MS.464         	10.327         	5.392
MS.465         	10.307         	5.531
MS.466         	10.287         	5.382
MS.467         	10.267         	5.472
MS.468         	10.245         	5.412
MS.469         	10.225         	5.382
MS.470         	10.205         	5.336
MS.471         	10.185         	5.4
MS.472         	10.165         	5.388
MS.473         	10.145         	5.174
MS.474         	10.122         	5.188
MS.475         	10.102         	5.338
MS.476         	10.082         	5.362
MS.477         	10.062         	5.358
MS.478         	10.042         	5.297
MS.479         	10.023         	5.154
MS.480         	10.002         	5.14
MS.481         	9.983          	5.182
MS.482         	9.962          	5.293
MS.483         	9.943          	5.325
MS.484         	9.922          	5.309
MS.485         	9.903          	5.152
MS.486         	9.882          	5.293
MS.487         	9.865          	5.122
MS.488         	9.845          	5.311
MS.489         	9.825          	5.136
MS.490         	9.805          	5.052
MS.491         	9.785          	5.076
MS.492         	9.765          	5.043
MS.493         	9.745          	5.062
MS.494         	9.727          	5.104
MS.495         	9.707          	5.043
MS.496         	9.688          	5.066
MS.497         	9.667          	5.019
MS.498         	9.65           	5.017
MS.499         	9.63           	4.985
MS.500         	9.61           	4.999
MS.501         	9.592          	5.027
MS.502         	9.573          	4.784
MS.503         	9.552          	4.955
MS.504         	9.535          	4.989
MS.505         	9.515          	5.047
MS.506         	9.495          	4.824
MS.507         	9.477          	4.975
MS.508         	9.457          	4.878
MS.509         	9.44           	4.832
MS.510         	9.42           	4.824
MS.511         	9.403          	4.848
MS.512         	9.382          	4.975
MS.513         	9.365          	4.683
MS.514         	9.345          	4.806
MS.515         	9.327          	4.784
MS.516         	9.307          	4.852
MS.517         	9.29           	4.77
MS.518         	9.27           	4.892
MS.519         	9.252          	4.562
MS.520         	9.235          	4.919
MS.521         	9.215          	4.798
MS.522         	9.198          	4.788
MS.523         	9.177          	4.608
MS.524         	9.16           	4.723
MS.525         	9.142          	4.625
MS.526         	9.122          	4.766
MS.527         	9.105          	4.681
MS.528         	9.087          	4.536
MS.529         	9.07           	4.457
MS.530         	9.05           	4.534
MS.531         	9.033          	4.502
MS.532         	9.015          	4.471
MS.533         	8.997          	4.429
MS.534         	8.98           	4.627
MS.535         	8.96           	4.29
MS.536         	8.943          	4.341
MS.537         	8.925          	4.314
MS.538         	8.908          	4.516
MS.539         	8.89           	4.262
MS.540         	8.872          	4.568
MS.541         	8.855          	4.343
MS.542         	8.837          	4.498
MS.543         	8.818          	4.324
MS.544         	8.8            	4.403
MS.545         	8.783          	4.258
MS.546         	8.765          	4.28
MS.547         	8.747          	4.32
MS.548         	8.73           	4.258
MS.549         	8.712          	4.367
MS.550         	8.695          	4.143
MS.551         	8.677          	4.107
MS.552         	8.662          	4.063
MS.553         	8.645          	4.127
MS.554         	8.627          	3.962
MS.555         	8.61           	4.02
MS.556         	8.592          	3.986
MS.557         	8.575          	4.111
MS.558         	8.557          	3.897
MS.559         	8.54           	4.151
MS.560         	8.525          	3.797
MS.561         	8.507          	3.914
MS.562         	8.49           	4.01
MS.563         	8.472          	3.918
MS.564         	8.455          	3.942
MS.565         	8.44           	3.911
MS.566         	8.422          	3.664
MS.567         	8.405          	3.656
MS.568         	8.387          	3.764
MS.569         	8.372          	3.964
MS.570         	8.355          	3.841
MS.571         	8.337          	3.668
MS.572         	8.323          	3.632
MS.573         	8.305          	3.76
MS.574         	8.287          	3.619
MS.575         	8.273          	3.531
MS.576         	8.255          	3.499
MS.577         	8.24           	3.557
MS.578         	8.222          	3.567
MS.579         	8.205          	3.511
MS.580         	8.19           	3.507
MS.581         	8.172          	3.573
MS.582         	8.158          	3.458
MS.583         	8.14           	3.501
MS.584         	8.125          	3.491
MS.585         	8.108          	3.499
MS.586         	8.092          	3.507
MS.587         	8.075          	3.585
MS.588         	8.06           	3.337
MS.589         	8.042          	3.245
MS.590         	8.028          	3.436
MS.591         	8.012          	3.182
MS.592         	7.995          	3.035
MS.593         	7.98           	3.035
MS.594         	7.962          	3.146
MS.595         	7.947          	3.118
MS.596         	7.932          	3.062
MS.597         	7.915          	3.124
MS.598         	7.9            	3.078
MS.599         	7.885          	3.015
MS.600         	7.867          	2.874
MS.601         	7.852          	3.096
MS.602         	7.837          	3.102
MS.603         	7.822          	3.017
MS.604         	7.805          	2.854
MS.605         	7.79           	2.707
MS.606         	7.775          	2.776
MS.607         	7.76           	2.806
MS.608         	7.742          	2.82
MS.609         	7.727          	2.947
MS.610         	7.712          	2.729
MS.611         	7.697          	2.695
MS.612         	7.682          	2.824
MS.613         	7.668          	2.647
MS.614         	7.652          	2.614
MS.615         	7.635          	2.487
MS.616         	7.62           	2.633
MS.617         	7.605          	2.534
MS.618         	7.59           	2.628
MS.619         	7.575          	2.461
MS.620         	7.56           	2.52
MS.621         	7.545          	2.602
MS.622         	7.53           	2.508
MS.623         	7.515          	2.338
MS.624         	7.5            	2.465
MS.625         	7.485          	2.391
MS.626         	7.47           	2.447
MS.627         	7.455          	2.244
MS.628         	7.44           	2.322
MS.629         	7.425          	2.274
MS.630         	7.41           	2.302
MS.631         	7.395          	2.349
MS.632         	7.38           	2.24
MS.633         	7.365          	2.415
MS.634         	7.352          	2.099
MS.635         	7.337          	2.234
MS.636         	7.322          	2.095
MS.637         	7.307          	2.199
MS.638         	7.293          	2.113
MS.639         	7.277          	2.159
MS.640         	7.262          	2.06
MS.641         	7.25           	2.079
MS.642         	7.235          	2.056
MS.643         	7.22           	2.058
MS.644         	7.205          	2.008
MS.645         	7.192          	1.954
MS.646         	7.177          	1.843
MS.647         	7.162          	1.909
MS.648         	7.148          	1.942
MS.649         	7.135          	2
MS.650         	7.12           	1.907
MS.651         	7.105          	1.974
MS.652         	7.092          	1.843
MS.653         	7.077          	1.922
MS.654         	7.062          	1.891
MS.655         	7.05           	1.905
MS.656         	7.035          	1.587
MS.657         	7.02           	1.738
MS.658         	7.007          	1.603
MS.659         	6.992          	1.793
MS.660         	6.98           	1.829
MS.661         	6.965          	1.535
MS.662         	6.95           	1.789
MS.663         	6.938          	1.625
MS.664         	6.922          	1.448
MS.665         	6.91           	1.442
MS.666         	6.895          	1.253
MS.667         	6.882          	1.454
MS.668         	6.867          	1.333
MS.669         	6.855          	1.384
MS.670         	6.84           	1.293
MS.671         	6.827          	1.269
MS.672         	6.812          	1.259
MS.673         	6.8            	1.215
MS.674         	6.785          	1.094
MS.675         	6.773          	1.051
MS.676         	6.76           	1.15
MS.677         	6.745          	1.134
MS.678         	6.733          	1.168
MS.679         	6.717          	1.043
MS.680         	6.705          	1.148
MS.681         	6.692          	1.148
MS.682         	6.677          	1.19
MS.683         	6.665          	0.985
MS.684         	6.652          	0.975
MS.685         	6.637          	0.977
MS.686         	6.625          	1.07
MS.687         	6.612          	1.041
MS.688         	6.597          	0.983
MS.689         	6.585          	0.945
MS.690         	6.572          	0.995
MS.691         	6.56           	0.991
MS.692         	6.545          	0.856
MS.693         	6.532          	0.88
MS.694         	6.52           	0.937
MS.695         	6.507          	0.935
MS.696         	6.495          	0.953
MS.697         	6.48           	0.564
MS.698         	6.467          	0.864
MS.699         	6.455          	0.777
MS.700         	6.442          	0.687
MS.701         	6.43           	0.812
MS.702         	6.418          	0.769
MS.703         	6.402          	0.568
MS.704         	6.39           	0.657
MS.705         	6.378          	0.673
MS.706         	6.365          	0.687
MS.707         	6.352          	0.671
MS.708         	6.34           	0.54
MS.709         	6.327          	0.771
MS.710         	6.315          	0.689
MS.711         	6.302          	0.493
MS.712         	6.29           	0.526
MS.713         	6.277          	0.57
MS.714         	6.265          	0.463
MS.715         	6.253          	0.598
MS.716         	6.24           	0.53
MS.717         	6.227          	0.417
MS.718         	6.215          	0.441
MS.719         	6.202          	0.489
MS.720         	6.19           	0.318
MS.721         	6.177          	0.328
MS.722         	6.165          	0.361
MS.723         	6.152          	0.35
MS.724         	6.14           	0.363
MS.725         	6.128          	0.371
MS.726         	6.115          	0.342
MS.727         	6.102          	0.31
MS.728         	6.092          	0.33
MS.729         	6.08           	0.332
MS.730         	6.067          	0.352
MS.731         	6.055          	0.357
MS.732         	6.043          	0.363
MS.733         	6.03           	0.34
MS.734         	6.017          	0.322
MS.735         	6.007          	0.292
MS.736         	5.995          	0.34
MS.737         	5.983          	0.312
MS.738         	5.97           	0.296
MS.739         	5.96           	0.304
MS.740         	5.947          	0.338
MS.741         	5.935          	0.34
MS.742         	5.922          	0.294
MS.743         	5.912          	0.302
MS.744         	5.9            	0.288
MS.745         	5.887          	0.3
MS.746         	5.875          	0.298
MS.747         	5.865          	0.288
MS.748         	5.852          	0.336
MS.749         	5.84           	0.298
MS.750         	5.83           	0.332
MS.751         	5.817          	0.322
MS.752         	5.805          	0.292
MS.753         	5.795          	0.29
MS.754         	5.782          	0.288
MS.755         	5.77           	0.296
MS.756         	5.76           	0.292
MS.757         	5.747          	0.296
MS.758         	5.737          	0.278
MS.759         	5.725          	0.294
MS.760         	5.713          	0.296
MS.761         	5.702          	0.288
MS.762         	5.69           	0.282
MS.763         	5.68           	0.226
MS.764         	5.668          	0.226
MS.765         	5.657          	0.294
MS.766         	5.645          	0.292
MS.767         	5.635          	0.222
MS.768         	5.622          	0.23
MS.769         	5.612          	0.296
MS.770         	5.6            	0.238
MS.771         	5.59           	0.24
MS.772         	5.577          	0.234
MS.773         	5.567          	0.244
MS.774         	5.555          	0.232
MS.775         	5.545          	0.302
MS.776         	5.535          	0.228
MS.777         	5.523          	0.23
MS.778         	5.512          	0.246
MS.779         	5.5            	0.222
MS.780         	5.49           	0.236
MS.781         	5.477          	0.234
MS.782         	5.467          	0.232
MS.783         	5.457          	0.22
MS.784         	5.445          	0.234
MS.785         	5.435          	0.23
MS.786         	5.425          	0.216
MS.787         	5.412          	0.157
MS.788         	5.402          	0.147
MS.789         	5.392          	0.226
MS.790         	5.38           	0.147
MS.791         	5.37           	0.216
MS.792         	5.36           	0.228
MS.793         	5.35           	0.141
MS.794         	5.338          	0.155
MS.795         	5.327          	0.139
MS.796         	5.318          	0.224
MS.797         	5.305          	0.135
MS.798         	5.295          	0.139
MS.799         	5.285          	0.207
MS.800         	5.275          	0.187
MS.801         	5.265          	0.137
MS.802         	5.253          	0.149
MS.803         	5.242          	0.135
MS.804         	5.233          	0.137
MS.805         	5.222          	0.133
MS.806         	5.213          	0.147
MS.807         	5.2            	0.141
MS.808         	5.19           	0.133
MS.809         	5.18           	0.123
MS.810         	5.17           	0.125
MS.811         	5.16           	0.121
MS.812         	5.15           	0.121
MS.813         	5.14           	0.131
MS.814         	5.13           	0.193
MS.815         	5.117          	0.113
MS.816         	5.108          	0.123
MS.817         	5.097          	0.121
MS.818         	5.088          	0.121
MS.819         	5.077          	0.119
MS.820         	5.068          	0.117
MS.821         	5.057          	0.117
MS.822         	5.047          	0.117
MS.823         	5.037          	0.109
MS.824         	5.027          	0.111
MS.825         	5.017          	0.115
MS.826         	5.007          	0.105
MS.827         	4.997          	0.105
MS.828         	4.987          	0.115
MS.829         	4.977          	0.107
MS.830         	4.967          	0.105
MS.831         	4.957          	0.107
MS.832         	4.947          	0.105
MS.833         	4.938          	0.105
MS.834         	4.927          	0.105
MS.835         	4.918          	0.105
MS.836         	4.907          	0.105
MS.837         	4.898          	0.105
MS.838         	4.887          	0.103
MS.839         	4.878          	0.101
MS.840         	4.87           	0.095
MS.841         	4.86           	0.095
MS.842         	4.85           	0.097
MS.843         	4.84           	0.107
MS.844         	4.83           	0.101
MS.845         	4.82           	0.095
MS.846         	4.81           	0.089
MS.847         	4.8            	0.087
MS.848         	4.793          	0.085
MS.849         	4.782          	0.101
MS.850         	4.773          	0.085
MS.851         	4.762          	0.091
MS.852         	4.753          	0.085
MS.853         	4.745          	0.083
MS.854         	4.735          	0.083
MS.855         	4.725          	0.081
MS.856         	4.715          	0.079
MS.857         	4.705          	0.075
MS.858         	4.697          	0.081
MS.859         	4.688          	0.085
MS.860         	4.677          	0.093
MS.861         	4.668          	0.07
MS.862         	4.66           	0.066
MS.863         	4.65           	0.117
MS.864         	4.64           	0.109
MS.865         	4.632          	0.075
MS.866         	4.622          	0.093
MS.867         	4.612          	0.07
MS.868         	4.605          	0.068
MS.869         	4.595          	0.066
MS.870         	4.585          	0.081
MS.871         	4.575          	0.064
MS.872         	4.568          	0.079
MS.873         	4.557          	0.068
MS.874         	4.55           	0.073
MS.875         	4.54           	0.075
MS.876         	4.53           	0.077
MS.877         	4.523          	0.068
MS.878         	4.512          	0.115
MS.879         	4.503          	0.085
MS.880         	4.495          	0.07
MS.881         	4.485          	0.085
MS.882         	4.477          	0.077
MS.883         	4.467          	0.058
MS.884         	4.46           	0.056
MS.885         	4.45           	0.087
MS.886         	4.44           	0.056
MS.887         	4.432          	0.064
MS.888         	4.423          	0.05
MS.889         	4.415          	0.062
MS.890         	4.405          	0.058
MS.891         	4.398          	0.05
MS.892         	4.387          	0.089
MS.893         	4.38           	0.048
MS.894         	4.37           	0.036
MS.895         	4.362          	0.056
MS.896         	4.352          	0.046
MS.897         	4.345          	0.056
MS.898         	4.335          	0.064
MS.899         	4.327          	0.054
MS.900         	4.318          	0.032
MS.901         	4.31           	0.04
MS.902         	4.3            	0.085
MS.903         	4.293          	0.032
MS.904         	4.285          	0.052
MS.905         	4.275          	0.04
MS.906         	4.267          	0.034
MS.907         	4.257          	0.044
MS.908         	4.25           	0.097
MS.909         	4.242          	0.034
MS.910         	4.233          	0.032
MS.911         	4.225          	0.036
MS.912         	4.215          	0.085
MS.913         	4.207          	0.036
MS.914         	4.2            	0.036
MS.915         	4.19           	0.095
MS.916         	4.182          	0.058
MS.917         	4.175          	0.042
MS.918         	4.165          	0.038
MS.919         	4.157          	0.034
MS.920         	4.15           	0.03
MS.921         	4.14           	0.042
MS.922         	4.132          	0.032
MS.923         	4.125          	0.024
MS.924         	4.115          	0.03
MS.925         	4.108          	0.044
MS.926         	4.1            	0.044
MS.927         	4.092          	0.081
MS.928         	4.082          	0.032
MS.929         	4.075          	0.034
MS.930         	4.068          	0.036
MS.931         	4.057          	0.046
MS.932         	4.05           	0.05
MS.933         	4.043          	0.024
MS.934         	4.035          	0.07
MS.935         	4.027          	0.044
MS.936         	4.017          	0.03
MS.937         	4.01           	0.03
MS.938         	4.003          	0.04
MS.939         	3.995          	0.107
MS.940         	3.987          	0.038
MS.941         	3.977          	0.018
MS.942         	3.97           	0.038
MS.943         	3.962          	0.02
MS.944         	3.955          	0.024
MS.945         	3.947          	0.02
MS.946         	3.94           	0.02
MS.947         	3.93           	0.03
MS.948         	3.922          	0.058
MS.949         	3.915          	0.01
MS.950         	3.908          	0.028
MS.951         	3.9            	0.034
MS.952         	3.892          	0.016
MS.953         	3.885          	0.018
MS.954         	3.877          	0.038
MS.955         	3.867          	0.052
MS.956         	3.86           	0.012
MS.957         	3.852          	0.022
MS.958         	3.845          	0.056
MS.959         	3.837          	0.048
MS.960         	3.83           	0.016
MS.961         	3.822          	0.04
MS.962         	3.815          	0.014
MS.963         	3.807          	0.018
MS.964         	3.8            	0.018
MS.965         	3.793          	0.01
MS.966         	3.785          	0.014
MS.967         	3.777          	0.022
MS.968         	3.77           	0.068
MS.969         	3.762          	0.07
MS.970         	3.755          	0.073
MS.971         	3.747          	-0.032
MS.972         	3.74           	0.081
MS.973         	3.732          	0.026
MS.974         	3.725          	0.016
MS.975         	3.717          	0.087
MS.976         	3.71           	0.038
MS.977         	3.702          	0.038
MS.978         	3.695          	0.026
MS.979         	3.688          	0.028
MS.980         	3.68           	0.018
MS.981         	3.672          	0.026
MS.982         	3.665          	0.038
MS.983         	3.658          	0.028
MS.984         	3.65           	0.038
MS.985         	3.642          	0.083
MS.986         	3.635          	0.044
MS.987         	3.627          	0.048
MS.988         	3.622          	0.024
MS.989         	3.615          	0.03
MS.990         	3.607          	0.064
MS.991         	3.6            	0.006
MS.992         	3.592          	0.06
MS.993         	3.585          	0.018
MS.994         	3.577          	0.028
MS.995         	3.57           	0.073
MS.996         	3.565          	0.008
MS.997         	3.557          	0.024
MS.998         	3.55           	0.073
MS.999         	3.543          	0.014
MS.1000        	3.535          	0.052
MS.1001        	3.527          	-0.018
MS.1002        	3.523          	0.012
MS.1003        	3.515          	0.054
MS.1004        	3.507          	0.042
MS.1005        	3.5            	0.044
MS.1006        	3.492          	0.024
MS.1007        	3.487          	0.117
MS.1008        	3.48           	0.093
MS.1009        	3.472          	0.066
MS.1010        	3.465          	0.058
MS.1011        	3.457          	0.046
MS.1012        	3.452          	0.014
MS.1013        	3.445          	0.077
MS.1014        	3.438          	0.028
MS.1015        	3.43           	0.008
MS.1016        	3.425          	0.000
MS.1017        	3.418          	0.03
MS.1018        	3.41           	0.089
MS.1019        	3.402          	0.077
MS.1020        	3.398          	0.026
MS.1021        	3.39           	0.101
MS.1022        	3.382          	0.016
MS.1023        	3.377          	0.000
MS.1024        	3.37           	-0.008
MS.1025        	3.362          	0.022
MS.1026        	3.357          	0.056
MS.1027        	3.35           	-0.014
MS.1028        	3.342          	0.079
MS.1029        	3.337          	0.042
MS.1030        	3.33           	0.012
MS.1031        	3.322          	0.085
MS.1032        	3.317          	0.052
MS.1033        	3.31           	0.141
MS.1034        	3.303          	0.062
MS.1035        	3.297          	0.046
MS.1036        	3.29           	0.01
MS.1037        	3.283          	0.000
MS.1038        	3.277          	0.026
MS.1039        	3.27           	0.008
MS.1040        	3.262          	0.016
MS.1041        	3.257          	0.056
MS.1042        	3.25           	0.006
MS.1043        	3.245          	0.05
MS.1044        	3.237          	0.048
MS.1045        	3.232          	0.01
MS.1046        	3.225          	0.014
MS.1047        	3.217          	0.008
MS.1048        	3.212          	0.018
MS.1049        	3.205          	0.01
MS.1050        	3.2            	0.006
MS.1051        	3.192          	0.008
MS.1052        	3.188          	0.01
MS.1053        	3.18           	0.012
MS.1054        	3.172          	0.008
MS.1055        	3.168          	0.01
MS.1056        	3.16           	0.008
MS.1057        	3.155          	0.006
MS.1058        	3.148          	0.006
MS.1059        	3.142          	0.006
MS.1060        	3.135          	0.004
MS.1061        	3.13           	0.008
MS.1062        	3.122          	0.004
MS.1063        	3.117          	0.008
MS.1064        	3.11           	0.006
MS.1065        	3.105          	0.008
MS.1066        	3.097          	0.006
MS.1067        	3.092          	0.006
MS.1068        	3.085          	0.006
MS.1069        	3.08           	0.012
MS.1070        	3.072          	0.008
MS.1071        	3.067          	0.006
MS.1072        	3.062          	0.008
MS.1073        	3.055          	0.006
MS.1074        	3.05           	0.008
MS.1075        	3.043          	0.004
MS.1076        	3.037          	0.006
MS.1077        	3.03           	0.008
MS.1078        	3.025          	0.01
MS.1079        	3.02           	0.008
MS.1080        	3.013          	0.008
MS.1081        	3.007          	0.016
MS.1082        	3              	0.018
MS.1083        	2.995          	0.07
MS.1084        	2.99           	0.07
MS.1085        	2.982          	0.016
MS.1086        	2.977          	0.004
MS.1087        	2.97           	0.02
MS.1088        	2.965          	0.032
MS.1089        	2.96           	0.032
MS.1090        	2.952          	0.028
MS.1091        	2.947          	0.046
MS.1092        	2.942          	0.056
MS.1093        	2.935          	0.046
MS.1094        	2.93           	0.046
MS.1095        	2.925          	0.016
DERIVED EXCITABILITY VARIABLES
Program = QTracP 3/4/2020
Threshold method = 6 (optimised for CAP, using data for present condition only)
SR method = 1 (using actual data values)
6.                 	0.000               	Peak response\(mV)
9.                 	33.4                	Temperature ( C)
17.                	75                  	Age (years)
18.                	1                   	Sex (M=1, F=2)

EXTRA VARIABLES

MScPeak(mV) = 6.24
MScS5(mA) = 5.95
MScS50(mA) = 7.95
MScS95(mA) = 11.56
MScNSteps = 1
MScSteps(%) = 2.7
MScStepMax(%) = 2.7
MScD50 = 62
MScSlope = 3.57
MSFPeakAmp(mV) = 6.43
MSFNUnits = 107
MSFMeanUnitAmp(uV) = 60.1
MSFHuntTime(m) = 3.16
MSFError(%) = 3.18
MSFNLarge = 29.47
MSFMedianAmp(%) = 0.752
MSFMedianAmp(mV) = 0.0483
MSFHalfAmpAmp(%) = 0.998
MSFHalfAmpAmp(mV) = 0.0641
MSFLargestAmp(%) = 3.35
MSFLargestAmp(mV) = 0.215
MSFMeanRS(%) = 2.01
MSFOpts = 10106121
MScDuration(min) = 10.5
MSFTraces = 732
MSFSizeLimit(uV) = 16.1
MSFLimitType = 1
MSFSmallestAmp(uV) = 17.3

EXTRA WAVEFORMS


!MScan Model
!107
	1	4.28	0.64	2
	2	4.93	0.44	2
	3	5.19	0.48	2
	4	5.37	0.79	2
	5	5.47	0.61	2
	6	5.7	0.96	2
	7	5.93	0.55	2
	8	6.1	0.46	2
	9	6.13	0.29	2
	10	6.17	0.45	2
	11	6.2	0.51	2
	12	6.23	0.64	2
	13	6.26	0.88	2
	14	6.31	1.22	2
	15	6.42	1.95	2
	16	6.46	0.93	2
	17	6.5	0.87	2
	18	6.53	0.95	2
	19	6.58	1.06	2
	20	6.62	0.74	2
	21	6.66	0.67	2
	22	6.71	0.65	2
	23	6.75	0.62	2
	24	6.78	0.66	2
	25	6.8	0.66	2
	26	6.82	0.41	2
	27	6.84	0.55	2
	28	6.85	0.58	2
	29	6.87	0.81	2
	30	6.91	1.52	2
	31	6.94	1.33	2
	32	6.98	1.61	2
	33	7.05	2.27	2
	34	7.13	2.02	2
	35	7.16	0.48	2
	36	7.19	0.27	2
	37	7.21	0.39	2
	38	7.23	0.46	2
	39	7.25	0.53	2
	40	7.28	0.68	2
	41	7.31	0.78	2
	42	7.35	0.86	2
	43	7.4	1.01	2
	44	7.44	1.06	2
	45	7.46	0.38	2
	46	7.49	0.28	2
	47	7.51	0.54	2
	48	7.53	0.71	2
	49	7.57	0.71	2
	50	7.6	0.68	2
	51	7.62	0.61	2
	52	7.65	0.67	2
	53	7.68	0.75	2
	54	7.71	0.76	2
	55	7.74	0.82	2
	56	7.79	1.28	2
	57	7.85	1.57	2
	58	7.91	1	2
	59	7.94	0.66	2
	60	7.96	0.85	2
	61	7.99	0.9	2
	62	8.01	0.86	2
	63	8.03	0.5	2
	64	8.05	0.67	2
	65	8.15	0.97	2
	66	8.15	2.18	2
	67	8.19	0.5	2
	68	8.25	0.84	2
	69	8.32	1.23	2
	70	8.37	1.38	2
	71	8.48	2.42	2
	72	8.58	1.58	2
	73	8.62	0.78	2
	74	8.65	0.89	2
	75	8.67	0.58	2
	76	8.7	0.41	2
	77	8.72	0.45	2
	78	8.89	2.92	2
	79	9	1.49	2
	80	9.04	0.63	2
	81	9.08	0.64	2
	82	9.14	1.21	2
	83	9.29	2.11	2
	84	9.49	1.78	2
	85	9.62	1.47	2
	86	9.69	0.66	2
	87	9.73	0.61	2
	88	9.79	0.75	2
	89	9.86	0.92	2
	90	10.09	1.52	2
	91	10.18	1.01	2
	92	10.33	1.42	2
	93	10.58	1.65	2
	94	10.69	0.83	2
	95	10.91	1	2
	96	11.37	0.77	2
	97	11.62	3.35	1.96
	98	12.2	0.69	2
	99	12.29	0.62	2
	100	12.33	0.28	2
	101	12.41	0.45	2
	102	12.55	0.96	2
	103	12.77	0.45	2
	104	12.99	0.36	2
	105	13.2	0.33	2
	106	13.8	0.49	2
	107	15.21	2.91	2.4

