File:              	C:\Qtrac\Data\Daniel M Sørensen\MScan multicentre study\Data from centres\Edmonton\Processed data\MSCC00921A.QZD
Name:              	CA.EDM.NC.7.1
Protocol:          	MSCAN-R2
Date:              	21/9/20
Start time:        	14:46:23
Age:               	75
Sex:               	M
Temperature:       	32.5
S/R sites:         	APB
NC/disease:        	NC
Operator:          	KJ
Comments:
M-SCAN DATA (11.1-5.1m)
Scanpts: 135, 148, 626, 633
Stim. (mA)     	Amp. (mV)
MS.1           	24             	8.296
MS.2           	24             	8.292
MS.3           	24             	8.292
MS.4           	24             	8.286
MS.5           	24             	8.256
MS.6           	24             	8.246
MS.7           	24             	8.252
MS.8           	24             	8.256
MS.9           	24             	8.23
MS.10          	24             	8.228
MS.11          	24             	8.226
MS.12          	24             	8.218
MS.13          	24             	8.206
MS.14          	24             	8.216
MS.15          	24             	8.21
MS.16          	24             	8.214
MS.17          	24             	8.212
MS.18          	24             	8.236
MS.19          	24             	8.218
MS.20          	24             	8.232
MS.21          	24             	8.23
MS.22          	24             	8.234
MS.23          	24             	8.236
MS.24          	23.858         	8.236
MS.25          	23.807         	8.252
MS.26          	23.76          	8.238
MS.27          	23.712         	8.25
MS.28          	23.665         	8.27
MS.29          	23.62          	8.256
MS.30          	23.573         	8.25
MS.31          	23.525         	8.25
MS.32          	23.477         	8.258
MS.33          	23.43          	8.264
MS.34          	23.385         	8.268
MS.35          	23.337         	8.258
MS.36          	23.29          	8.278
MS.37          	23.245         	8.272
MS.38          	23.198         	8.25
MS.39          	23.153         	8.276
MS.40          	23.105         	8.274
MS.41          	23.06          	8.274
MS.42          	23.012         	8.282
MS.43          	22.967         	8.3
MS.44          	22.92          	8.284
MS.45          	22.875         	8.278
MS.46          	22.83          	8.274
MS.47          	22.785         	8.272
MS.48          	22.737         	8.282
MS.49          	22.692         	8.276
MS.50          	22.647         	8.296
MS.51          	22.602         	8.3
MS.52          	22.557         	8.3
MS.53          	22.512         	8.294
MS.54          	22.467         	8.294
MS.55          	22.422         	8.282
MS.56          	22.377         	8.304
MS.57          	22.332         	8.325
MS.58          	22.288         	8.298
MS.59          	22.243         	8.29
MS.60          	22.2           	8.296
MS.61          	22.155         	8.3
MS.62          	22.11          	8.306
MS.63          	22.067         	8.304
MS.64          	22.022         	8.304
MS.65          	21.977         	8.3
MS.66          	21.935         	8.294
MS.67          	21.89          	8.308
MS.68          	21.847         	8.288
MS.69          	21.802         	8.159
MS.70          	21.76          	8.288
MS.71          	21.715         	8.153
MS.72          	21.672         	8.284
MS.73          	21.63          	8.284
MS.74          	21.585         	8.165
MS.75          	21.542         	8.294
MS.76          	21.5           	8.298
MS.77          	21.458         	8.306
MS.78          	21.415         	8.175
MS.79          	21.372         	8.314
MS.80          	21.327         	8.18
MS.81          	21.285         	8.188
MS.82          	21.243         	8.198
MS.83          	21.2           	8.194
MS.84          	21.157         	8.182
MS.85          	21.118         	8.192
MS.86          	21.075         	8.188
MS.87          	21.032         	8.171
MS.88          	20.99          	8.184
MS.89          	20.948         	8.194
MS.90          	20.907         	8.198
MS.91          	20.865         	8.216
MS.92          	20.823         	8.204
MS.93          	20.78          	8.212
MS.94          	20.74          	8.204
MS.95          	20.698         	8.198
MS.96          	20.657         	8.188
MS.97          	20.615         	8.194
MS.98          	20.575         	8.186
MS.99          	20.532         	8.173
MS.100         	20.493         	8.196
MS.101         	20.452         	8.208
MS.102         	20.41          	8.188
MS.103         	20.37          	8.194
MS.104         	20.33          	8.206
MS.105         	20.288         	8.198
MS.106         	20.247         	8.218
MS.107         	20.208         	8.212
MS.108         	20.167         	8.202
MS.109         	20.127         	8.2
MS.110         	20.087         	8.194
MS.111         	20.047         	8.198
MS.112         	20.007         	8.202
MS.113         	19.967         	8.22
MS.114         	19.927         	8.216
MS.115         	19.887         	8.214
MS.116         	19.847         	8.22
MS.117         	19.807         	8.2
MS.118         	19.767         	8.2
MS.119         	19.727         	8.206
MS.120         	19.69          	8.177
MS.121         	19.65          	8.214
MS.122         	19.61          	8.216
MS.123         	19.57          	8.226
MS.124         	19.532         	8.23
MS.125         	19.493         	8.173
MS.126         	19.455         	8.212
MS.127         	19.415         	8.198
MS.128         	19.377         	8.214
MS.129         	19.337         	8.198
MS.130         	19.3           	8.192
MS.131         	19.26          	8.214
MS.132         	19.222         	8.224
MS.133         	19.182         	8.194
MS.134         	19.145         	8.149
MS.135         	19.108         	8.2
MS.136         	19.067         	8.208
MS.137         	19.03          	8.19
MS.138         	18.993         	8.216
MS.139         	18.955         	8.175
MS.140         	18.917         	8.2
MS.141         	18.88          	8.224
MS.142         	18.842         	8.19
MS.143         	18.802         	8.204
MS.144         	18.765         	8.192
MS.145         	18.727         	8.208
MS.146         	18.69          	8.192
MS.147         	18.655         	8.19
MS.148         	18.618         	8.194
MS.149         	18.58          	8.192
MS.150         	18.542         	8.208
MS.151         	18.505         	8.204
MS.152         	18.467         	8.18
MS.153         	18.432         	8.2
MS.154         	18.395         	8.2
MS.155         	18.358         	8.194
MS.156         	18.32          	8.192
MS.157         	18.285         	8.184
MS.158         	18.247         	8.198
MS.159         	18.212         	8.202
MS.160         	18.175         	8.18
MS.161         	18.137         	8.171
MS.162         	18.102         	8.186
MS.163         	18.067         	8.18
MS.164         	18.03          	8.182
MS.165         	17.995         	8.175
MS.166         	17.958         	8.192
MS.167         	17.922         	7.672
MS.168         	17.887         	8.192
MS.169         	17.85          	8.173
MS.170         	17.815         	7.656
MS.171         	17.78          	7.636
MS.172         	17.745         	8.171
MS.173         	17.708         	7.638
MS.174         	17.672         	7.648
MS.175         	17.637         	8.177
MS.176         	17.602         	7.654
MS.177         	17.567         	7.64
MS.178         	17.532         	7.652
MS.179         	17.497         	7.636
MS.180         	17.462         	7.644
MS.181         	17.427         	7.517
MS.182         	17.392         	7.607
MS.183         	17.358         	7.644
MS.184         	17.323         	7.646
MS.185         	17.288         	7.505
MS.186         	17.255         	7.593
MS.187         	17.22          	7.63
MS.188         	17.185         	7.511
MS.189         	17.15          	7.503
MS.190         	17.118         	7.589
MS.191         	17.083         	7.458
MS.192         	17.047         	7.489
MS.193         	17.015         	7.515
MS.194         	16.98          	7.483
MS.195         	16.948         	7.473
MS.196         	16.913         	7.438
MS.197         	16.878         	7.513
MS.198         	16.845         	7.434
MS.199         	16.812         	7.295
MS.200         	16.778         	7.436
MS.201         	16.745         	7.338
MS.202         	16.71          	7.428
MS.203         	16.677         	7.299
MS.204         	16.645         	7.43
MS.205         	16.61          	7.416
MS.206         	16.577         	7.406
MS.207         	16.545         	7.251
MS.208         	16.512         	7.305
MS.209         	16.477         	7.257
MS.210         	16.445         	7.291
MS.211         	16.413         	6.901
MS.212         	16.38          	6.921
MS.213         	16.347         	7.281
MS.214         	16.315         	7.265
MS.215         	16.282         	7.287
MS.216         	16.25          	6.949
MS.217         	16.217         	6.957
MS.218         	16.185         	7.251
MS.219         	16.153         	7.259
MS.220         	16.12          	6.927
MS.221         	16.087         	6.858
MS.222         	16.055         	6.901
MS.223         	16.022         	6.886
MS.224         	15.992         	6.913
MS.225         	15.96          	6.898
MS.226         	15.927         	6.872
MS.227         	15.895         	6.729
MS.228         	15.865         	6.834
MS.229         	15.832         	6.816
MS.230         	15.8           	6.864
MS.231         	15.77          	6.788
MS.232         	15.737         	6.806
MS.233         	15.705         	6.818
MS.234         	15.675         	6.836
MS.235         	15.642         	6.657
MS.236         	15.612         	6.826
MS.237         	15.58          	6.76
MS.238         	15.55          	6.76
MS.239         	15.52          	6.651
MS.240         	15.487         	6.659
MS.241         	15.457         	6.508
MS.242         	15.425         	6.631
MS.243         	15.395         	6.437
MS.244         	15.365         	6.522
MS.245         	15.332         	6.572
MS.246         	15.302         	6.457
MS.247         	15.273         	6.494
MS.248         	15.242         	6.478
MS.249         	15.212         	6.264
MS.250         	15.18          	6.32
MS.251         	15.15          	6.282
MS.252         	15.12          	6.328
MS.253         	15.09          	6.262
MS.254         	15.06          	5.96
MS.255         	15.03          	6.25
MS.256         	15             	6.204
MS.257         	14.97          	5.615
MS.258         	14.94          	6.008
MS.259         	14.91          	5.817
MS.260         	14.88          	5.841
MS.261         	14.85          	5.674
MS.262         	14.82          	5.386
MS.263         	14.792         	5.694
MS.264         	14.762         	6.147
MS.265         	14.733         	5.62
MS.266         	14.702         	5.593
MS.267         	14.672         	5.454
MS.268         	14.645         	5.889
MS.269         	14.615         	5.688
MS.270         	14.585         	5.366
MS.271         	14.557         	5.368
MS.272         	14.527         	5.213
MS.273         	14.497         	5.003
MS.274         	14.47          	5.132
MS.275         	14.44          	5.223
MS.276         	14.412         	4.806
MS.277         	14.382         	5.15
MS.278         	14.355         	4.913
MS.279         	14.325         	5.07
MS.280         	14.297         	5.174
MS.281         	14.267         	4.516
MS.282         	14.24          	4.572
MS.283         	14.212         	4.637
MS.284         	14.182         	4.826
MS.285         	14.155         	4.594
MS.286         	14.127         	4.552
MS.287         	14.097         	4.618
MS.288         	14.07          	4.558
MS.289         	14.042         	4.627
MS.290         	14.015         	4.073
MS.291         	13.985         	4.451
MS.292         	13.957         	4.461
MS.293         	13.93          	4.214
MS.294         	13.903         	4.069
MS.295         	13.875         	4.107
MS.296         	13.847         	3.662
MS.297         	13.82          	3.982
MS.298         	13.792         	4.129
MS.299         	13.765         	3.883
MS.300         	13.737         	3.833
MS.301         	13.71          	3.672
MS.302         	13.682         	3.698
MS.303         	13.655         	3.652
MS.304         	13.627         	3.849
MS.305         	13.6           	3.845
MS.306         	13.572         	3.625
MS.307         	13.545         	3.46
MS.308         	13.517         	3.678
MS.309         	13.492         	3.37
MS.310         	13.465         	3.611
MS.311         	13.438         	3.436
MS.312         	13.41          	3.17
MS.313         	13.385         	3.535
MS.314         	13.358         	3.138
MS.315         	13.33          	2.985
MS.316         	13.305         	3.279
MS.317         	13.278         	3.084
MS.318         	13.25          	2.745
MS.319         	13.225         	2.798
MS.320         	13.197         	2.874
MS.321         	13.172         	3.166
MS.322         	13.145         	3.138
MS.323         	13.12          	3.088
MS.324         	13.092         	2.633
MS.325         	13.068         	2.882
MS.326         	13.04          	2.63
MS.327         	13.015         	2.604
MS.328         	12.987         	2.663
MS.329         	12.962         	2.538
MS.330         	12.938         	2.413
MS.331         	12.91          	2.512
MS.332         	12.885         	2.506
MS.333         	12.86          	2.131
MS.334         	12.832         	2.093
MS.335         	12.807         	2.381
MS.336         	12.782         	2.163
MS.337         	12.757         	1.992
MS.338         	12.73          	2.189
MS.339         	12.705         	2.157
MS.340         	12.68          	1.934
MS.341         	12.655         	1.885
MS.342         	12.63          	1.827
MS.343         	12.605         	1.577
MS.344         	12.58          	1.644
MS.345         	12.555         	2.024
MS.346         	12.53          	1.36
MS.347         	12.505         	1.527
MS.348         	12.48          	1.525
MS.349         	12.455         	1.718
MS.350         	12.43          	1.478
MS.351         	12.405         	1.285
MS.352         	12.38          	1.253
MS.353         	12.355         	1.422
MS.354         	12.33          	1.583
MS.355         	12.305         	1.269
MS.356         	12.28          	1.18
MS.357         	12.257         	1.36
MS.358         	12.233         	1.229
MS.359         	12.207         	1.289
MS.360         	12.182         	1.215
MS.361         	12.16          	1.206
MS.362         	12.135         	1.027
MS.363         	12.11          	1.088
MS.364         	12.085         	1.082
MS.365         	12.062         	1.013
MS.366         	12.037         	1.027
MS.367         	12.012         	0.955
MS.368         	11.99          	1.033
MS.369         	11.965         	1.025
MS.370         	11.943         	1.021
MS.371         	11.917         	1.015
MS.372         	11.895         	1.035
MS.373         	11.87          	1.023
MS.374         	11.847         	0.957
MS.375         	11.822         	0.965
MS.376         	11.8           	0.949
MS.377         	11.775         	0.741
MS.378         	11.752         	1.005
MS.379         	11.73          	0.9
MS.380         	11.705         	0.939
MS.381         	11.682         	1.039
MS.382         	11.657         	0.741
MS.383         	11.635         	0.834
MS.384         	11.613         	0.802
MS.385         	11.59          	0.58
MS.386         	11.565         	0.653
MS.387         	11.542         	0.63
MS.388         	11.52          	0.788
MS.389         	11.497         	0.743
MS.390         	11.472         	0.753
MS.391         	11.45          	0.689
MS.392         	11.427         	0.663
MS.393         	11.405         	0.667
MS.394         	11.382         	0.761
MS.395         	11.36          	0.62
MS.396         	11.337         	0.679
MS.397         	11.315         	0.677
MS.398         	11.292         	0.781
MS.399         	11.27          	0.649
MS.400         	11.247         	0.532
MS.401         	11.225         	0.572
MS.402         	11.202         	0.493
MS.403         	11.18          	0.657
MS.404         	11.157         	0.655
MS.405         	11.135         	0.471
MS.406         	11.113         	0.497
MS.407         	11.09          	0.608
MS.408         	11.068         	0.56
MS.409         	11.045         	0.572
MS.410         	11.023         	0.522
MS.411         	11.002         	0.592
MS.412         	10.98          	0.512
MS.413         	10.957         	0.417
MS.414         	10.935         	0.582
MS.415         	10.915         	0.62
MS.416         	10.892         	0.415
MS.417         	10.87          	0.373
MS.418         	10.85          	0.546
MS.419         	10.827         	0.354
MS.420         	10.805         	0.367
MS.421         	10.785         	0.431
MS.422         	10.762         	0.495
MS.423         	10.74          	0.367
MS.424         	10.72          	0.365
MS.425         	10.698         	0.447
MS.426         	10.677         	0.429
MS.427         	10.655         	0.431
MS.428         	10.635         	0.373
MS.429         	10.613         	0.375
MS.430         	10.592         	0.379
MS.431         	10.57          	0.367
MS.432         	10.55          	0.373
MS.433         	10.528         	0.357
MS.434         	10.507         	0.348
MS.435         	10.485         	0.391
MS.436         	10.465         	0.361
MS.437         	10.445         	0.387
MS.438         	10.422         	0.363
MS.439         	10.403         	0.377
MS.440         	10.382         	0.377
MS.441         	10.36          	0.381
MS.442         	10.34          	0.397
MS.443         	10.32          	0.371
MS.444         	10.3           	0.395
MS.445         	10.278         	0.393
MS.446         	10.257         	0.207
MS.447         	10.238         	0.385
MS.448         	10.217         	0.332
MS.449         	10.198         	0.332
MS.450         	10.175         	0.409
MS.451         	10.155         	0.344
MS.452         	10.135         	0.354
MS.453         	10.115         	0.352
MS.454         	10.095         	0.354
MS.455         	10.075         	0.222
MS.456         	10.055         	0.23
MS.457         	10.035         	0.407
MS.458         	10.015         	0.357
MS.459         	9.995          	0.23
MS.460         	9.975          	0.413
MS.461         	9.955          	0.228
MS.462         	9.935          	0.222
MS.463         	9.915          	0.23
MS.464         	9.895          	0.226
MS.465         	9.875          	0.226
MS.466         	9.855          	0.216
MS.467         	9.835          	0.224
MS.468         	9.818          	0.218
MS.469         	9.797          	0.224
MS.470         	9.778          	0.226
MS.471         	9.757          	0.224
MS.472         	9.738          	0.224
MS.473         	9.717          	0.22
MS.474         	9.7            	0.22
MS.475         	9.68           	0.222
MS.476         	9.66           	0.222
MS.477         	9.64           	0.224
MS.478         	9.622          	0.22
MS.479         	9.602          	0.228
MS.480         	9.582          	0.222
MS.481         	9.565          	0.228
MS.482         	9.545          	0.224
MS.483         	9.525          	0.23
MS.484         	9.507          	0.224
MS.485         	9.488          	0.224
MS.486         	9.47           	0.226
MS.487         	9.45           	0.228
MS.488         	9.432          	0.228
MS.489         	9.412          	0.228
MS.490         	9.395          	0.226
MS.491         	9.375          	0.228
MS.492         	9.358          	0.226
MS.493         	9.337          	0.23
MS.494         	9.32           	0.23
MS.495         	9.3            	0.226
MS.496         	9.283          	0.228
MS.497         	9.262          	0.23
MS.498         	9.245          	0.232
MS.499         	9.225          	0.228
MS.500         	9.207          	0.226
MS.501         	9.19           	0.226
MS.502         	9.17           	0.228
MS.503         	9.153          	0.23
MS.504         	9.135          	0.23
MS.505         	9.115          	0.222
MS.506         	9.097          	0.228
MS.507         	9.08           	0.224
MS.508         	9.062          	0.23
MS.509         	9.042          	0.228
MS.510         	9.025          	0.226
MS.511         	9.007          	0.228
MS.512         	8.99           	0.228
MS.513         	8.972          	0.226
MS.514         	8.952          	0.228
MS.515         	8.935          	0.226
MS.516         	8.917          	0.224
MS.517         	8.9            	0.23
MS.518         	8.882          	0.175
MS.519         	8.865          	0.185
MS.520         	8.847          	0.224
MS.521         	8.83           	0.228
MS.522         	8.812          	0.181
MS.523         	8.795          	0.226
MS.524         	8.778          	0.228
MS.525         	8.757          	0.23
MS.526         	8.74           	0.232
MS.527         	8.725          	0.175
MS.528         	8.707          	0.228
MS.529         	8.69           	0.23
MS.530         	8.672          	0.183
MS.531         	8.655          	0.23
MS.532         	8.637          	0.226
MS.533         	8.62           	0.179
MS.534         	8.602          	0.181
MS.535         	8.585          	0.226
MS.536         	8.568          	0.175
MS.537         	8.55           	0.228
MS.538         	8.535          	0.179
MS.539         	8.517          	0.185
MS.540         	8.5            	0.181
MS.541         	8.483          	0.179
MS.542         	8.465          	0.181
MS.543         	8.45           	0.177
MS.544         	8.432          	0.183
MS.545         	8.415          	0.185
MS.546         	8.398          	0.187
MS.547         	8.382          	0.181
MS.548         	8.365          	0.175
MS.549         	8.347          	0.181
MS.550         	8.332          	0.181
MS.551         	8.315          	0.175
MS.552         	8.297          	0.179
MS.553         	8.283          	0.183
MS.554         	8.265          	0.179
MS.555         	8.247          	0.183
MS.556         	8.233          	0.181
MS.557         	8.215          	0.179
MS.558         	8.2            	0.181
MS.559         	8.182          	0.181
MS.560         	8.167          	0.181
MS.561         	8.15           	0.183
MS.562         	8.135          	0.181
MS.563         	8.117          	0.181
MS.564         	8.102          	0.181
MS.565         	8.085          	0.183
MS.566         	8.07           	0.185
MS.567         	8.052          	0.179
MS.568         	8.037          	0.179
MS.569         	8.02           	0.177
MS.570         	8.005          	0.183
MS.571         	7.99           	0.181
MS.572         	7.972          	0.185
MS.573         	7.957          	0.179
MS.574         	7.94           	0.181
MS.575         	7.925          	0.179
MS.576         	7.91           	0.181
MS.577         	7.892          	0.177
MS.578         	7.878          	0.179
MS.579         	7.862          	0.179
MS.580         	7.847          	0.177
MS.581         	7.83           	0.185
MS.582         	7.815          	0.179
MS.583         	7.8            	0.181
MS.584         	7.785          	0.181
MS.585         	7.767          	0.177
MS.586         	7.753          	0.01
MS.587         	7.737          	0.183
MS.588         	7.722          	0.181
MS.589         	7.707          	0.183
MS.590         	7.69           	0.181
MS.591         	7.675          	0.183
MS.592         	7.66           	0.179
MS.593         	7.645          	0.179
MS.594         	7.63           	0.183
MS.595         	7.615          	0.181
MS.596         	7.6            	0.008
MS.597         	7.585          	0.008
MS.598         	7.57           	0.002
MS.599         	7.555          	0.006
MS.600         	7.537          	0.002
MS.601         	7.523          	0.006
MS.602         	7.507          	0.000
MS.603         	7.492          	0.006
MS.604         	7.477          	0.002
MS.605         	7.462          	0.002
MS.606         	7.45           	0.006
MS.607         	7.435          	0.008
MS.608         	7.42           	0.01
MS.609         	7.405          	0.002
MS.610         	7.39           	0.006
MS.611         	7.375          	0.01
MS.612         	7.36           	0.004
MS.613         	7.345          	0.01
MS.614         	7.33           	0.004
MS.615         	7.315          	0.002
MS.616         	7.302          	0.008
MS.617         	7.287          	0.006
MS.618         	7.273          	0.004
MS.619         	7.257          	0.000
MS.620         	7.242          	0.103
MS.621         	7.227          	0.012
MS.622         	7.215          	0.018
MS.623         	7.2            	0.01
MS.624         	7.185          	0.01
MS.625         	7.17           	0.004
MS.626         	7.157          	0.004
MS.627         	7.142          	-0.002
MS.628         	7.128          	0.004
MS.629         	7.115          	0.004
MS.630         	7.1            	0.004
MS.631         	7.085          	0.01
MS.632         	7.072          	0.008
MS.633         	7.057          	0.006
MS.634         	7.043          	0.002
MS.635         	7.03           	0.006
MS.636         	7.015          	0.004
MS.637         	7              	0.006
MS.638         	6.987          	0.004
MS.639         	6.972          	0.008
MS.640         	6.96           	0.002
MS.641         	6.945          	0.004
MS.642         	6.932          	0.004
DERIVED EXCITABILITY VARIABLES
Program = QTracP 3/4/2020
Threshold method = 6 (optimised for CAP, using data for present condition only)
SR method = 1 (using actual data values)
6.                 	0.000               	Peak response\(mV)
9.                 	32.5                	Temperature ( C)
17.                	75                  	Age (years)
18.                	1                   	Sex (M=1, F=2)

EXTRA VARIABLES

MScPeak(mV) = 8.23
MScS5(mA) = 10.6
MScS50(mA) = 13.91
MScS95(mA) = 17.78
MScNSteps = 5
MScSteps(%) = 16.6
MScStepMax(%) = 5.8
MScD50 = 35
MScSlope = 6.04
MSFPeakAmp(mV) = 8.19
MSFNUnits = 79
MSFMeanUnitAmp(uV) = 103.7
MSFHuntTime(m) = 2.78
MSFError(%) = 3.02
MSFNLarge = 24.31
MSFMedianAmp(%) = 1.15
MSFMedianAmp(mV) = 0.0941
MSFHalfAmpAmp(%) = 1.43
MSFHalfAmpAmp(mV) = 0.117
MSFLargestAmp(%) = 6.87
MSFLargestAmp(mV) = 0.563
MSFMeanRS(%) = 2
MSFOpts = 10106121
MScDuration(min) = 6
MSFTraces = 499
MSFSizeLimit(uV) = 20.7
MSFLimitType = 3
MSFSmallestAmp(uV) = 36.7

EXTRA WAVEFORMS


!MScan Model
!79
	1	7.64	2	2
	2	8.61	0.73	2
	3	9.92	1.45	2
	4	10.56	0.85	2
	5	10.84	1.01	2
	6	11.12	1.33	2
	7	11.4	1.23	2
	8	11.61	1.54	2
	9	11.72	0.83	2
	10	11.89	0.82	2
	11	11.89	0.55	2
	12	12.05	0.53	2
	13	12.1	0.87	2
	14	12.12	0.69	2
	15	12.18	0.51	2
	16	12.26	1.19	2
	17	12.36	1.38	2
	18	12.43	1.43	2
	19	12.49	1.15	2
	20	12.55	1.24	2
	21	12.6	1.13	2
	22	12.64	0.95	2
	23	12.69	1.05	2
	24	12.72	0.81	2
	25	12.74	0.57	2
	26	12.77	0.5	2
	27	12.79	0.54	2
	28	12.81	0.59	2
	29	12.84	0.74	2
	30	12.89	1.34	2
	31	12.93	1.46	2
	32	12.99	1.37	2
	33	13.06	1.13	2
	34	13.14	1.73	2
	35	13.22	2.13	2
	36	13.3	1.67	2
	37	13.37	1.65	2
	38	13.42	0.8	2
	39	13.48	0.66	2
	40	13.55	1.99	2
	41	13.64	1.64	2
	42	13.7	1.26	2
	43	13.76	1.43	2
	44	13.8	0.86	2
	45	13.84	0.77	2
	46	13.88	0.96	2
	47	13.93	1.23	2
	48	13.99	1.21	2
	49	14.06	1.4	2
	50	14.12	1.67	2
	51	14.19	1.44	2
	52	14.26	1.59	2
	53	14.33	1.5	2
	54	14.4	1.39	2
	55	14.47	1.74	2
	56	14.57	1.94	2
	57	14.69	2.54	2
	58	14.84	3.21	2
	59	14.95	1.71	2
	60	15.04	1.55	2
	61	15.09	0.98	2
	62	15.15	0.78	2
	63	15.2	0.87	2
	64	15.25	0.91	2
	65	15.3	0.8	2
	66	15.35	0.58	2
	67	15.39	0.56	2
	68	15.43	0.5	2
	69	15.48	0.45	2
	70	15.56	0.79	2
	71	15.65	0.61	2
	72	15.87	1.28	2
	73	16.1	1.31	2
	74	16.31	3.18	2
	75	16.66	1.92	2
	76	16.83	1.06	2
	77	16.99	0.46	2.4
	78	17.21	0.88	2
	79	17.84	6.87	2

